# time = 1000
# Grid points = 536
# Pressure (Pa) = 101325
#             1_pos             2_posf             3_uvel             4_vvel             5_wvel
  -9.9844746342e-01  -1.0000000000e+00   2.9343788784e-01  -2.1808320260e-02  -2.1808320260e-02
  -9.9534239025e-01  -9.9689492684e-01   7.9804813122e-01  -5.8808024069e-02  -5.8808024069e-02
  -9.9198365223e-01  -9.9378985367e-01   1.3743978747e+00  -9.9710845079e-02  -9.9710845079e-02
  -9.8838185555e-01  -9.9017745079e-01   1.9993045794e+00  -1.4119019922e-01  -1.4119019922e-01
  -9.8480896186e-01  -9.8658626032e-01   2.6159243139e+00  -1.7782242820e-01  -1.7782242820e-01
  -9.8126970459e-01  -9.8303166340e-01   3.2297746778e+00  -2.0872000819e-01  -2.0872000819e-01
  -9.7775819086e-01  -9.7950774578e-01   3.8436468120e+00  -2.3280637269e-01  -2.3280637269e-01
  -9.7426694966e-01  -9.7600863593e-01   4.4577527750e+00  -2.4886331203e-01  -2.4886331203e-01
  -9.7078343061e-01  -9.7252526339e-01   5.0719196349e+00  -2.5568442176e-01  -2.5568442176e-01
  -9.6728750374e-01  -9.6904159783e-01   5.6861279161e+00  -2.5207109671e-01  -2.5207109671e-01
  -9.6375006535e-01  -9.6553340965e-01   6.3005062377e+00  -2.3677581843e-01  -2.3677581843e-01
  -9.6013042197e-01  -9.6196672106e-01   6.9153393096e+00  -2.0842769745e-01  -2.0842769745e-01
  -9.5637053140e-01  -9.5829412289e-01   7.5311397325e+00  -1.6543323147e-01  -1.6543323147e-01
  -9.5238424340e-01  -9.5444693992e-01   8.1485524611e+00  -1.0585521241e-01  -1.0585521241e-01
  -9.4804639424e-01  -9.5032154688e-01   8.7668857045e+00  -2.7462875550e-02  -2.7462875550e-02
  -9.4321898260e-01  -9.4577124160e-01   9.3793239585e+00   7.1138445184e-02   7.1138445184e-02
  -9.3927026057e-01  -9.4066672360e-01   9.8170004716e+00   1.5794750443e-01   1.5794750443e-01
  -9.3647733449e-01  -9.3787379753e-01   1.0112569354e+01   2.2472050347e-01   2.2472050347e-01
  -9.3359072392e-01  -9.3508087146e-01   1.0430804232e+01   3.0363971477e-01   3.0363971477e-01
  -9.3061042886e-01  -9.3210057639e-01   1.0747683301e+01   3.8797874427e-01   3.8797874427e-01
  -9.2724289169e-01  -9.2912028133e-01   1.1068412079e+01   4.7876957132e-01   4.7876957132e-01
  -9.2348811241e-01  -9.2536550205e-01   1.1382320921e+01   5.7303421096e-01   5.7303421096e-01
  -9.1892500758e-01  -9.2161072277e-01   1.1683764296e+01   6.6661123066e-01   6.6661123066e-01
  -9.1355357720e-01  -9.1623929239e-01   1.1971617525e+01   7.5612044074e-01   7.5612044074e-01
  -9.0936329342e-01  -9.1086786200e-01   1.2176672041e+01   8.1607637930e-01   8.1607637930e-01
  -9.0635415624e-01  -9.0785872483e-01   1.2304547695e+01   8.5027162959e-01   8.5027162959e-01
  -9.0334501906e-01  -9.0484958765e-01   1.2416110996e+01   8.7535887736e-01   8.7535887736e-01
  -9.0033588188e-01  -9.0184045047e-01   1.2506396396e+01   8.8924810637e-01   8.8924810637e-01
  -8.9732674471e-01  -8.9883131330e-01   1.2570246469e+01   8.9116717700e-01   8.9116717700e-01
  -8.9431760753e-01  -8.9582217612e-01   1.2613863427e+01   8.8210475936e-01   8.8210475936e-01
  -8.9130847035e-01  -8.9281303894e-01   1.2637536883e+01   8.6173421887e-01   8.6173421887e-01
  -8.8829933318e-01  -8.8980390176e-01   1.2638873915e+01   8.2827419192e-01   8.2827419192e-01
  -8.8420938849e-01  -8.8679476459e-01   1.2608311946e+01   7.6358589882e-01   7.6358589882e-01
  -8.7903863631e-01  -8.8162401240e-01   1.2519329769e+01   6.6011312476e-01   6.6011312476e-01
  -8.7386788412e-01  -8.7645326021e-01   1.2368456667e+01   5.1919887185e-01   5.1919887185e-01
  -8.6869713193e-01  -8.7128250803e-01   1.2182367215e+01   3.6411318583e-01   3.6411318583e-01
  -8.6470892632e-01  -8.6611175584e-01   1.1990927643e+01   2.1600776900e-01   2.1600776900e-01
  -8.6190326729e-01  -8.6330609680e-01   1.1840610610e+01   1.0400695485e-01   1.0400695485e-01
  -8.5909760825e-01  -8.6050043777e-01   1.1679915689e+01  -1.1989045134e-02  -1.1989045134e-02
  -8.5629194922e-01  -8.5769477873e-01   1.1521918835e+01  -1.2329633221e-01  -1.2329633221e-01
  -8.5344965191e-01  -8.5488911970e-01   1.1381335280e+01  -2.2004336890e-01  -2.2004336890e-01
  -8.5057071634e-01  -8.5201018413e-01   1.1231217805e+01  -3.2114246798e-01  -3.2114246798e-01
  -8.4769178077e-01  -8.4913124855e-01   1.1095863670e+01  -4.1097907622e-01  -4.1097907622e-01
  -8.4481284520e-01  -8.4625231298e-01   1.0941296413e+01  -5.1247160859e-01  -5.1247160859e-01
  -8.4158495231e-01  -8.4337337741e-01   1.0763475483e+01  -6.2916715152e-01  -6.2916715152e-01
  -8.3800810211e-01  -8.3979652721e-01   1.0583713816e+01  -7.4888009541e-01  -7.4888009541e-01
  -8.3443125191e-01  -8.3621967701e-01   1.0432993448e+01  -8.5348742948e-01  -8.5348742948e-01
  -8.3085440171e-01  -8.3264282681e-01   1.0318164383e+01  -9.4077034304e-01  -9.4077034304e-01
  -8.2631015852e-01  -8.2906597661e-01   1.0228780224e+01  -1.0255372280e+00  -1.0255372280e+00
  -8.2079852232e-01  -8.2355434042e-01   1.0224724565e+01  -1.0824684791e+00  -1.0824684791e+00
  -8.1528688612e-01  -8.1804270422e-01   1.0335064308e+01  -1.0906028208e+00  -1.0906028208e+00
  -8.0977524993e-01  -8.1253106803e-01   1.0562159918e+01  -1.0492501542e+00  -1.0492501542e+00
  -8.0462426995e-01  -8.0701943183e-01   1.0824916515e+01  -9.7948678265e-01  -9.7948678265e-01
  -7.9983394620e-01  -8.0222910807e-01   1.1118957550e+01  -8.8922559679e-01  -8.8922559679e-01
  -7.9529684570e-01  -7.9743878432e-01   1.1441266267e+01  -7.8045598453e-01  -7.8045598453e-01
  -7.9101296846e-01  -7.9315490708e-01   1.1749466815e+01  -6.6922045344e-01  -6.6922045344e-01
  -7.8648311347e-01  -7.8887102984e-01   1.2053847068e+01  -5.5308752299e-01  -5.5308752299e-01
  -7.8170728071e-01  -7.8409519709e-01   1.2342385624e+01  -4.3680559020e-01  -4.3680559020e-01
  -7.7771227375e-01  -7.7931936433e-01   1.2587532786e+01  -3.3255257849e-01  -3.3255257849e-01
  -7.7449809258e-01  -7.7610518316e-01   1.2761966650e+01  -2.5515740010e-01  -2.5515740010e-01
  -7.7128391140e-01  -7.7289100199e-01   1.2913673406e+01  -1.8457401524e-01  -1.8457401524e-01
  -7.6806973023e-01  -7.6967682082e-01   1.3042887041e+01  -1.2105954321e-01  -1.2105954321e-01
  -7.6430331756e-01  -7.6646263964e-01   1.3174018407e+01  -5.1820954183e-02  -5.1820954183e-02
  -7.5998467339e-01  -7.6214399548e-01   1.3282873676e+01   1.3809229199e-02   1.3809229199e-02
  -7.5566602922e-01  -7.5782535131e-01   1.3353504937e+01   6.7491009362e-02   6.7491009362e-02
  -7.5134738506e-01  -7.5350670714e-01   1.3389090602e+01   1.1086428890e-01   1.1086428890e-01
  -7.4702874089e-01  -7.4918806297e-01   1.3391650801e+01   1.4467887086e-01   1.4467887086e-01
  -7.4271009672e-01  -7.4486941880e-01   1.3362857594e+01   1.6955996136e-01   1.6955996136e-01
  -7.3839145255e-01  -7.4055077464e-01   1.3310659509e+01   1.8412104410e-01   1.8412104410e-01
  -7.3407280838e-01  -7.3623213047e-01   1.3240645697e+01   1.9075959225e-01   1.9075959225e-01
  -7.3043400841e-01  -7.3191348630e-01   1.3166474981e+01   1.9059559702e-01   1.9059559702e-01
  -7.2747505264e-01  -7.2895453053e-01   1.3101139712e+01   1.8707136476e-01   1.8707136476e-01
  -7.2451609687e-01  -7.2599557475e-01   1.3032082359e+01   1.8031667735e-01   1.8031667735e-01
  -7.2155714109e-01  -7.2303661898e-01   1.2960200052e+01   1.7050389688e-01   1.7050389688e-01
  -7.1859818532e-01  -7.2007766321e-01   1.2886595188e+01   1.5773773464e-01   1.5773773464e-01
  -7.1563922955e-01  -7.1711870744e-01   1.2812571112e+01   1.4213296816e-01   1.4213296816e-01
  -7.1268027378e-01  -7.1415975166e-01   1.2739133729e+01   1.2370183489e-01   1.2370183489e-01
  -7.0972131800e-01  -7.1120079589e-01   1.2665705903e+01   1.0193340076e-01   1.0193340076e-01
  -7.0615761782e-01  -7.0824184012e-01   1.2578473039e+01   7.1710122803e-02   7.1710122803e-02
  -7.0198917324e-01  -7.0407339553e-01   1.2487854680e+01   3.3487108149e-02   3.3487108149e-02
  -6.9782072865e-01  -6.9990495094e-01   1.2406835174e+01  -8.1880645093e-03  -8.1880645093e-03
  -6.9365228406e-01  -6.9573650635e-01   1.2333276642e+01  -5.4387500221e-02  -5.4387500221e-02
  -6.8948383947e-01  -6.9156806177e-01   1.2266391270e+01  -1.0624920828e-01  -1.0624920828e-01
  -6.8531539488e-01  -6.8739961718e-01   1.2207631841e+01  -1.6352029811e-01  -1.6352029811e-01
  -6.8114695030e-01  -6.8323117259e-01   1.2159958255e+01  -2.2318138087e-01  -2.2318138087e-01
  -6.7697850571e-01  -6.7906272800e-01   1.2121332242e+01  -2.8603552130e-01  -2.8603552130e-01
  -6.7296594532e-01  -6.7489428342e-01   1.2092377818e+01  -3.4891392272e-01  -3.4891392272e-01
  -6.6910926911e-01  -6.7103760722e-01   1.2071927065e+01  -4.1045849689e-01  -4.1045849689e-01
  -6.6525259291e-01  -6.6718093101e-01   1.2058193621e+01  -4.7285869982e-01  -4.7285869982e-01
  -6.6139591671e-01  -6.6332425481e-01   1.2050347175e+01  -5.3616512660e-01  -5.3616512660e-01
  -6.5753924051e-01  -6.5946757861e-01   1.2047748735e+01  -6.0054718427e-01  -6.0054718427e-01
  -6.5368256431e-01  -6.5561090241e-01   1.2049946188e+01  -6.6623859458e-01  -6.6623859458e-01
  -6.4982588811e-01  -6.5175422621e-01   1.2056270089e+01  -7.3030342046e-01  -7.3030342046e-01
  -6.4596921191e-01  -6.4789755001e-01   1.2065962988e+01  -7.9246380941e-01  -7.9246380941e-01
  -6.4211253571e-01  -6.4404087381e-01   1.2078330113e+01  -8.5275293965e-01  -8.5275293965e-01
  -6.3825585951e-01  -6.4018419761e-01   1.2092657949e+01  -9.1056238635e-01  -9.1056238635e-01
  -6.3439918331e-01  -6.3632752141e-01   1.2108290114e+01  -9.6526749355e-01  -9.6526749355e-01
  -6.3054250711e-01  -6.3247084521e-01   1.2124623585e+01  -1.0163839350e+00  -1.0163839350e+00
  -6.2668583091e-01  -6.2861416901e-01   1.2140659840e+01  -1.0621908853e+00  -1.0621908853e+00
  -6.2282915471e-01  -6.2475749281e-01   1.2156391875e+01  -1.1037006589e+00  -1.1037006589e+00
  -6.1897247851e-01  -6.2090081661e-01   1.2171541840e+01  -1.1409137787e+00  -1.1409137787e+00
  -6.1511580231e-01  -6.1704414041e-01   1.2185790835e+01  -1.1735516599e+00  -1.1735516599e+00
  -6.1114652273e-01  -6.1318746421e-01   1.2199242575e+01  -1.2021428342e+00  -1.2021428342e+00
  -6.0706463977e-01  -6.0910558125e-01   1.2211394438e+01  -1.2256718392e+00  -1.2256718392e+00
  -6.0298275682e-01  -6.0502369830e-01   1.2221655704e+01  -1.2431332088e+00  -1.2431332088e+00
  -5.9890087386e-01  -6.0094181534e-01   1.2229882895e+01  -1.2543910393e+00  -1.2543910393e+00
  -5.9481899091e-01  -5.9685993238e-01   1.2236013290e+01  -1.2593949851e+00  -1.2593949851e+00
  -5.9073710795e-01  -5.9277804943e-01   1.2240060069e+01  -1.2581678231e+00  -1.2581678231e+00
  -5.8665522499e-01  -5.8869616647e-01   1.2242099007e+01  -1.2507831221e+00  -1.2507831221e+00
  -5.8257334204e-01  -5.8461428352e-01   1.2242266516e+01  -1.2373679757e+00  -1.2373679757e+00
  -5.7849145908e-01  -5.8053240056e-01   1.2240765992e+01  -1.2181247443e+00  -1.2181247443e+00
  -5.7440957613e-01  -5.7645051761e-01   1.2237878742e+01  -1.1933836036e+00  -1.1933836036e+00
  -5.7032769317e-01  -5.7236863465e-01   1.2233979166e+01  -1.1637085765e+00  -1.1637085765e+00
  -5.6624581022e-01  -5.6828675169e-01   1.2229504948e+01  -1.1296944300e+00  -1.1296944300e+00
  -5.6216392726e-01  -5.6420486874e-01   1.2224743275e+01  -1.0903336715e+00  -1.0903336715e+00
  -5.5808204430e-01  -5.6012298578e-01   1.2220317286e+01  -1.0460465926e+00  -1.0460465926e+00
  -5.5400016135e-01  -5.5604110283e-01   1.2216818168e+01  -9.9548012460e-01  -9.9548012460e-01
  -5.4991827839e-01  -5.5195921987e-01   1.2215261906e+01  -9.4387248712e-01  -9.4387248712e-01
  -5.4647321141e-01  -5.4787733692e-01   1.2216037405e+01  -8.9939462566e-01  -8.9939462566e-01
  -5.4366496041e-01  -5.4506908591e-01   1.2218399646e+01  -8.6055268150e-01  -8.6055268150e-01
  -5.4085670940e-01  -5.4226083490e-01   1.2222925474e+01  -8.1940072454e-01  -8.1940072454e-01
  -5.3804845839e-01  -5.3945258390e-01   1.2229601033e+01  -7.7900411071e-01  -7.7900411071e-01
  -5.3524020739e-01  -5.3664433289e-01   1.2238543773e+01  -7.3945227645e-01  -7.3945227645e-01
  -5.3243195638e-01  -5.3383608189e-01   1.2250208593e+01  -6.9962615511e-01  -6.9962615511e-01
  -5.2962370538e-01  -5.3102783088e-01   1.2265503680e+01  -6.5836851854e-01  -6.5836851854e-01
  -5.2681545437e-01  -5.2821957987e-01   1.2285163392e+01  -6.1563842545e-01  -6.1563842545e-01
  -5.2400720336e-01  -5.2541132887e-01   1.2308293249e+01  -5.7444975834e-01  -5.7444975834e-01
  -5.2119895236e-01  -5.2260307786e-01   1.2334468427e+01  -5.3566325009e-01  -5.3566325009e-01
  -5.1839070135e-01  -5.1979482686e-01   1.2364296495e+01  -4.9824779891e-01  -4.9824779891e-01
  -5.1558245035e-01  -5.1698657585e-01   1.2398972422e+01  -4.6108736696e-01  -4.6108736696e-01
  -5.1277419934e-01  -5.1417832484e-01   1.2439508079e+01  -4.2387955551e-01  -4.2387955551e-01
  -5.0996594833e-01  -5.1137007384e-01   1.2485134238e+01  -3.8802735552e-01  -3.8802735552e-01
  -5.0715769733e-01  -5.0856182283e-01   1.2535281288e+01  -3.5422799756e-01  -3.5422799756e-01
  -5.0434944632e-01  -5.0575357183e-01   1.2590170718e+01  -3.2252895598e-01  -3.2252895598e-01
  -5.0032570431e-01  -5.0294532082e-01   1.2675883630e+01  -2.8008233109e-01  -2.8008233109e-01
  -4.9508647128e-01  -4.9770608779e-01   1.2802210548e+01  -2.3130448040e-01  -2.3130448040e-01
  -4.8984723825e-01  -4.9246685476e-01   1.2949781292e+01  -1.8822632062e-01  -1.8822632062e-01
  -4.8460800522e-01  -4.8722762174e-01   1.3113951430e+01  -1.5275213870e-01  -1.5275213870e-01
  -4.8009570283e-01  -4.8198838871e-01   1.3264512911e+01  -1.2884278617e-01  -1.2884278617e-01
  -4.7631033106e-01  -4.7820301695e-01   1.3403607209e+01  -1.1194219829e-01  -1.1194219829e-01
  -4.7252495930e-01  -4.7441764518e-01   1.3555579450e+01  -9.8157554377e-02  -9.8157554377e-02
  -4.6873958754e-01  -4.7063227342e-01   1.3717142540e+01  -8.7788687255e-02  -8.7788687255e-02
  -4.6520432278e-01  -4.6684690166e-01   1.3869938373e+01  -8.1301397201e-02  -8.1301397201e-02
  -4.6191916502e-01  -4.6356174390e-01   1.4016569089e+01  -7.7605053736e-02  -7.7605053736e-02
  -4.5863400726e-01  -4.6027658614e-01   1.4167712251e+01  -7.6079873961e-02  -7.6079873961e-02
  -4.5534884949e-01  -4.5699142837e-01   1.4322182224e+01  -7.6545213418e-02  -7.6545213418e-02
  -4.5211132819e-01  -4.5370627061e-01   1.4474664803e+01  -7.8707773833e-02  -7.8707773833e-02
  -4.4892144335e-01  -4.5051638577e-01   1.4625355900e+01  -8.2258311533e-02  -8.2258311533e-02
  -4.4573155850e-01  -4.4732650092e-01   1.4775962939e+01  -8.7003716208e-02  -8.7003716208e-02
  -4.4254167366e-01  -4.4413661608e-01   1.4925946738e+01  -9.2729954622e-02  -9.2729954622e-02
  -4.3926799058e-01  -4.4094673123e-01   1.5079677121e+01  -9.9444504526e-02  -9.9444504526e-02
  -4.3591050927e-01  -4.3758924993e-01   1.5234277462e+01  -1.0688971202e-01  -1.0688971202e-01
  -4.3255302797e-01  -4.3423176862e-01   1.5384911399e+01  -1.1463974354e-01  -1.1463974354e-01
  -4.2919554666e-01  -4.3087428732e-01   1.5530602316e+01  -1.2244982049e-01  -1.2244982049e-01
  -4.2555949900e-01  -4.2751680601e-01   1.5683190458e+01  -1.3079983232e-01  -1.3079983232e-01
  -4.2164488498e-01  -4.2360219199e-01   1.5843240295e+01  -1.3954069845e-01  -1.3954069845e-01
  -4.1773027096e-01  -4.1968757797e-01   1.5994376557e+01  -1.4755859979e-01  -1.4755859979e-01
  -4.1381565695e-01  -4.1577296395e-01   1.6134939720e+01  -1.5459428566e-01  -1.5459428566e-01
  -4.0924338215e-01  -4.1185834994e-01   1.6284475095e+01  -1.6130951848e-01  -1.6130951848e-01
  -4.0401344659e-01  -4.0662841437e-01   1.6449372972e+01  -1.6731495117e-01  -1.6731495117e-01
  -3.9878351102e-01  -4.0139847880e-01   1.6595069840e+01  -1.7086085213e-01  -1.7086085213e-01
  -3.9355357545e-01  -3.9616854324e-01   1.6724371759e+01  -1.7196267246e-01  -1.7196267246e-01
  -3.8869225255e-01  -3.9093860767e-01   1.6831017996e+01  -1.7085953051e-01  -1.7085953051e-01
  -3.8419954231e-01  -3.8644589743e-01   1.6923013496e+01  -1.6792226004e-01  -1.6792226004e-01
  -3.7970683207e-01  -3.8195318719e-01   1.7008553928e+01  -1.6289363577e-01  -1.6289363577e-01
  -3.7521412183e-01  -3.7746047695e-01   1.7080693493e+01  -1.5616637611e-01  -1.5616637611e-01
  -3.7072141158e-01  -3.7296776671e-01   1.7140714918e+01  -1.4789442353e-01  -1.4789442353e-01
  -3.6622870134e-01  -3.6847505646e-01   1.7192272040e+01  -1.3791311329e-01  -1.3791311329e-01
  -3.6173599110e-01  -3.6398234622e-01   1.7236567826e+01  -1.2614335709e-01  -1.2614335709e-01
  -3.5724328086e-01  -3.5948963598e-01   1.7273900775e+01  -1.1242733863e-01  -1.1242733863e-01
  -3.5308521124e-01  -3.5499692574e-01   1.7300813151e+01  -9.8484622936e-02  -9.8484622936e-02
  -3.4926178225e-01  -3.5117349675e-01   1.7320166874e+01  -8.4483658250e-02  -8.4483658250e-02
  -3.4543835326e-01  -3.4735006775e-01   1.7334751119e+01  -6.9307392601e-02  -6.9307392601e-02
  -3.4161492426e-01  -3.4352663876e-01   1.7344818778e+01  -5.3128846953e-02  -5.3128846953e-02
  -3.3779149527e-01  -3.3970320976e-01   1.7350624353e+01  -3.6097952387e-02  -3.6097952387e-02
  -3.3396806627e-01  -3.3587978077e-01   1.7352503122e+01  -1.8299822598e-02  -1.8299822598e-02
  -3.3014463728e-01  -3.3205635177e-01   1.7350797869e+01   2.2350584235e-04   2.2350584235e-04
  -3.2632120828e-01  -3.2823292278e-01   1.7345821965e+01   1.9455300491e-02   1.9455300491e-02
  -3.2249777929e-01  -3.2440949378e-01   1.7337858987e+01   3.9384691725e-02   3.9384691725e-02
  -3.1867435029e-01  -3.2058606479e-01   1.7327172543e+01   5.9988448451e-02   5.9988448451e-02
  -3.1485092130e-01  -3.1676263579e-01   1.7314020087e+01   8.1219894481e-02   8.1219894481e-02
  -3.1102749230e-01  -3.1293920680e-01   1.7298676700e+01   1.0298926995e-01   1.0298926995e-01
  -3.0720406331e-01  -3.0911577780e-01   1.7281392981e+01   1.2521933696e-01   1.2521933696e-01
  -3.0338063431e-01  -3.0529234881e-01   1.7262143812e+01   1.4815979621e-01   1.4815979621e-01
  -2.9955720532e-01  -3.0146891981e-01   1.7241440051e+01   1.7140235562e-01   1.7140235562e-01
  -2.9573377632e-01  -2.9764549082e-01   1.7219414826e+01   1.9496861251e-01   1.9496861251e-01
  -2.9211581095e-01  -2.9382206182e-01   1.7197250953e+01   2.1779307472e-01   2.1779307472e-01
  -2.8870330919e-01  -2.9040956007e-01   1.7175718739e+01   2.3935890305e-01   2.3935890305e-01
  -2.8529080744e-01  -2.8699705832e-01   1.7153650091e+01   2.6098023213e-01   2.6098023213e-01
  -2.8187830569e-01  -2.8358455656e-01   1.7131139005e+01   2.8266271174e-01   2.8266271174e-01
  -2.7846580393e-01  -2.8017205481e-01   1.7108327495e+01   3.0435265504e-01   3.0435265504e-01
  -2.7505330218e-01  -2.7675955306e-01   1.7085349048e+01   3.2599938368e-01   3.2599938368e-01
  -2.7164080043e-01  -2.7334705130e-01   1.7062319381e+01   3.4756624947e-01   3.4756624947e-01
  -2.6822829867e-01  -2.6993454955e-01   1.7039345085e+01   3.6902224291e-01   3.6902224291e-01
  -2.6481579692e-01  -2.6652204780e-01   1.7016527931e+01   3.9033792213e-01   3.9033792213e-01
  -2.6140329517e-01  -2.6310954604e-01   1.6993960630e+01   4.1148992963e-01   4.1148992963e-01
  -2.5799079341e-01  -2.5969704429e-01   1.6971705614e+01   4.3248187430e-01   4.3248187430e-01
  -2.5457829166e-01  -2.5628454254e-01   1.6949773193e+01   4.5336522039e-01   4.5336522039e-01
  -2.5116578990e-01  -2.5287204078e-01   1.6928341324e+01   4.7402600053e-01   4.7402600053e-01
  -2.4775328815e-01  -2.4945953903e-01   1.6908273744e+01   4.9368151621e-01   4.9368151621e-01
  -2.4434078640e-01  -2.4604703727e-01   1.6889205078e+01   5.1272334608e-01   5.1272334608e-01
  -2.4092828464e-01  -2.4263453552e-01   1.6870857971e+01   5.3147408996e-01   5.3147408996e-01
  -2.3724272140e-01  -2.3922203377e-01   1.6851733734e+01   5.5157124591e-01   5.5157124591e-01
  -2.3328409668e-01  -2.3526340904e-01   1.6832541057e+01   5.7253164813e-01   5.7253164813e-01
  -2.2932547195e-01  -2.3130478431e-01   1.6814887007e+01   5.9275305163e-01   5.9275305163e-01
  -2.2536684722e-01  -2.2734615959e-01   1.6798916759e+01   6.1215837459e-01   6.1215837459e-01
