# time = 1000
# FINE UNIFORM Grid points = 361
# Pressure (Pa) = 101325
#         1_posUnif              2_Rkk           3_thetaZ           4_thetaY           5_thetaX            6_xmap1            7_xmap2
  -1.0000000000e+00   0.0000000000e+00   0.0000000000e+00   0.0000000000e+00   0.0000000000e+00   0.0000000000e+00   0.0000000000e+00
  -9.9444444444e-01   1.3066158649e-01  -4.8609105324e-03   4.8608531057e-03   7.8538634932e-01   7.0163472436e-01   0.0000000000e+00
  -9.8888888889e-01   5.1514518537e-01  -4.1517690449e-03   4.1517332762e-03   7.8538954490e-01   7.0034952450e-01   0.0000000000e+00
  -9.8333333333e-01   1.1157120204e+00  -3.5010116762e-03   3.5009902316e-03   7.8539203486e-01   6.9454354102e-01   0.0000000000e+00
  -9.7777777778e-01   1.8622060615e+00  -3.0734197429e-03   3.0734052321e-03   7.8539344043e-01   6.8379351494e-01  -3.8459253728e-16
  -9.7222222222e-01   2.6674871132e+00  -3.0988106794e-03   3.0987958058e-03   7.8539336213e-01   6.6847194512e-01   0.0000000000e+00
  -9.6666666667e-01   3.4454743155e+00  -3.7360480751e-03   3.7360220005e-03   7.8539118442e-01   6.4901860344e-01  -1.9229626864e-16
  -9.6111111111e-01   4.1271200721e+00  -4.7962864312e-03   4.7962312666e-03   7.8538666128e-01   6.2593704114e-01   0.0000000000e+00
  -9.5555555556e-01   4.6718925740e+00  -5.9785206813e-03   5.9784138469e-03   7.8538029225e-01   6.0007923904e-01  -1.9229626864e-16
  -9.5000000000e-01   5.0712198434e+00  -7.1746884924e-03   7.1745038442e-03   7.8537242574e-01   5.7327170549e-01   1.9229626864e-16
  -9.4444444444e-01   5.3399526920e+00  -8.3531822484e-03   8.3528908447e-03   7.8536327646e-01   5.4779781878e-01  -3.8459253728e-16
  -9.3888888889e-01   5.4978831715e+00  -9.2651845857e-03   9.2647869373e-03   7.8535524278e-01   5.2553932702e-01  -3.8459253728e-16
  -9.3333333333e-01   5.5673996693e+00  -9.5139663237e-03   9.5135357776e-03   7.8535290697e-01   5.0750578743e-01   0.0000000000e+00
  -9.2777777778e-01   5.5740654819e+00  -8.8311207192e-03   8.8307763787e-03   7.8535917015e-01   4.9421427821e-01   1.9229626864e-16
  -9.2222222222e-01   5.5434912020e+00  -7.2834874602e-03   7.2832942865e-03   7.8537163925e-01   4.8592971156e-01   0.0000000000e+00
  -9.1666666667e-01   5.5010614359e+00  -5.2039518832e-03   5.2038814218e-03   7.8538462298e-01   4.8280067807e-01   0.0000000000e+00
  -9.1111111111e-01   5.4669982092e+00  -2.7086546639e-03   2.7086447222e-03   7.8539449508e-01   4.8445824704e-01  -3.8459253728e-16
  -9.0555555556e-01   5.4516190403e+00   2.0721906883e-04  -2.0721969406e-04   7.8539814198e-01   4.9008486125e-01  -1.9229626864e-16
  -9.0000000000e-01   5.4553417748e+00   3.3886223761e-03  -3.3886029165e-03   7.8539242203e-01   4.9866690895e-01  -3.8459253728e-16
  -8.9444444444e-01   5.4738169111e+00   6.6252289375e-03  -6.6250835406e-03   7.8537621698e-01   5.0909711276e-01  -3.8459253728e-16
  -8.8888888889e-01   5.5046179910e+00   9.4498599601e-03  -9.4494380597e-03   7.8535351491e-01   5.2052162251e-01   0.0000000000e+00
  -8.8333333333e-01   5.5442386324e+00   1.1548636827e-02  -1.1547866788e-02   7.8533148092e-01   5.3207625914e-01   0.0000000000e+00
  -8.7777777778e-01   5.5893372797e+00   1.2645974919e-02  -1.2644963875e-02   7.8531820739e-01   5.4311018179e-01  -3.8459253728e-16
  -8.7222222222e-01   5.6364572233e+00   1.2705539885e-02  -1.2704514490e-02   7.8531745245e-01   5.5308438822e-01   0.0000000000e+00
  -8.6666666667e-01   5.6814018617e+00   1.2185318139e-02  -1.2184413603e-02   7.8532392613e-01   5.6157572530e-01   1.9229626864e-16
  -8.6111111111e-01   5.7229440624e+00   1.1638674129e-02  -1.1637885939e-02   7.8533043709e-01   5.6845940631e-01   4.8074067160e-16
  -8.5555555556e-01   5.7606070122e+00   1.1283528650e-02  -1.1282810431e-02   7.8533450718e-01   5.7405933976e-01   1.9229626864e-16
  -8.5000000000e-01   5.7953288093e+00   1.0900211412e-02  -1.0899563925e-02   7.8533875851e-01   5.7872558323e-01   0.0000000000e+00
  -8.4444444444e-01   5.8277187970e+00   1.0376165133e-02  -1.0375606616e-02   7.8534433298e-01   5.8278529122e-01   0.0000000000e+00
  -8.3888888889e-01   5.8536763951e+00   9.7132746521e-03  -9.7128164831e-03   7.8535099101e-01   5.8637110721e-01   0.0000000000e+00
  -8.3333333333e-01   5.8690143252e+00   8.9204492173e-03  -8.9200943239e-03   7.8535837735e-01   5.8946151667e-01   0.0000000000e+00
  -8.2777777778e-01   5.8748292995e+00   7.9873356959e-03  -7.9870809301e-03   7.8536626535e-01   5.9243008991e-01   0.0000000000e+00
  -8.2222222222e-01   5.8716788393e+00   6.7801290644e-03  -6.7799732288e-03   7.8537517866e-01   5.9553735669e-01   4.8074067160e-16
  -8.1666666667e-01   5.8632956249e+00   5.3575106911e-03  -5.3574338138e-03   7.8538381210e-01   5.9912197618e-01   3.8459253728e-16
  -8.1111111111e-01   5.8526699562e+00   4.0544018410e-03  -4.0543685184e-03   7.8538994441e-01   6.0323858754e-01   0.0000000000e+00
  -8.0555555556e-01   5.8378227743e+00   3.1125107047e-03  -3.1124956273e-03   7.8539331961e-01   6.0764293522e-01  -1.9229626864e-16
  -8.0000000000e-01   5.8162921419e+00   2.6008695448e-03  -2.6008607537e-03   7.8539478116e-01   6.1205039130e-01  -1.9229626864e-16
  -7.9444444444e-01   5.7894964318e+00   2.5253990603e-03  -2.5253910283e-03   7.8539497461e-01   6.1630864136e-01  -3.8459253728e-16
  -7.8888888889e-01   5.7619848494e+00   2.8949165982e-03  -2.8949044622e-03   7.8539397316e-01   6.2046295654e-01   0.0000000000e+00
  -7.8333333333e-01   5.7382875847e+00   3.6769542178e-03  -3.6769293754e-03   7.8539140344e-01   6.2444328808e-01   0.0000000000e+00
  -7.7777777778e-01   5.7198583325e+00   4.6546371321e-03  -4.6545867126e-03   7.8538733072e-01   6.2807173848e-01   1.9229626864e-16
  -7.7222222222e-01   5.7054479955e+00   5.6763818523e-03  -5.6762904077e-03   7.8538205293e-01   6.3134735056e-01  -1.9229626864e-16
  -7.6666666667e-01   5.6941126107e+00   6.7541302259e-03  -6.7539761837e-03   7.8537535461e-01   6.3443537227e-01   0.0000000000e+00
  -7.6111111111e-01   5.6865946513e+00   7.9800138647e-03  -7.9797597940e-03   7.8536632377e-01   6.3762413536e-01   1.9229626864e-16
  -7.5555555556e-01   5.6839152746e+00   9.0911013148e-03  -9.0907256615e-03   7.8535684058e-01   6.4097166349e-01   1.9229626864e-16
  -7.5000000000e-01   5.6840035284e+00   9.8648870055e-03  -9.8644070459e-03   7.8534950707e-01   6.4448601926e-01   0.0000000000e+00
  -7.4444444444e-01   5.6844449460e+00   1.0333577270e-02  -1.0333025598e-02   7.8534477392e-01   6.4792595169e-01   1.9229626864e-16
  -7.3888888889e-01   5.6841749358e+00   1.0570648744e-02  -1.0570058229e-02   7.8534229619e-01   6.5116338737e-01  -1.9229626864e-16
  -7.3333333333e-01   5.6786842059e+00   1.0577754665e-02  -1.0577162956e-02   7.8534222111e-01   6.5399858344e-01   0.0000000000e+00
  -7.2777777778e-01   5.6646622553e+00   1.0313220975e-02  -1.0312672560e-02   7.8534498404e-01   6.5619147395e-01  -1.9229626864e-16
  -7.2222222222e-01   5.6437832001e+00   9.7627246048e-03  -9.7622593997e-03   7.8535050958e-01   6.5800379564e-01  -1.9229626864e-16
  -7.1666666667e-01   5.6184923817e+00   8.9400644232e-03  -8.9397071886e-03   7.8535820219e-01   6.5976642911e-01   0.0000000000e+00
  -7.1111111111e-01   5.5917755092e+00   8.0126016583e-03  -8.0123444601e-03   7.8536606324e-01   6.6163834852e-01   1.9229626864e-16
  -7.0555555556e-01   5.5645907116e+00   7.0633354074e-03  -7.0631592239e-03   7.8537321844e-01   6.6349598207e-01   0.0000000000e+00
  -7.0000000000e-01   5.5414438043e+00   6.0788558677e-03  -6.0787435594e-03   7.8537968739e-01   6.6544573288e-01   0.0000000000e+00
  -6.9444444444e-01   5.5263692805e+00   5.1530663622e-03  -5.1529979459e-03   7.8538488644e-01   6.6767499128e-01   1.9229626864e-16
  -6.8888888889e-01   5.5173475341e+00   4.3522963667e-03  -4.3522551432e-03   7.8538869231e-01   6.7002764666e-01   0.0000000000e+00
  -6.8333333333e-01   5.5120616422e+00   3.5651854866e-03  -3.5651628430e-03   7.8539180815e-01   6.7239627537e-01   0.0000000000e+00
  -6.7777777778e-01   5.5106667494e+00   2.6134009393e-03  -2.6133920300e-03   7.8539474851e-01   6.7467412362e-01   0.0000000000e+00
  -6.7222222222e-01   5.5124620041e+00   1.5453372909e-03  -1.5453354782e-03   7.8539696939e-01   6.7658924745e-01   0.0000000000e+00
  -6.6666666667e-01   5.5143826947e+00   5.1442625746e-04  -5.1442628740e-04   7.8539803106e-01   6.7790365059e-01  -3.8459253728e-16
  -6.6111111111e-01   5.5169117269e+00  -3.7105560794e-04   3.7105671614e-04   7.8539809453e-01   6.7863036711e-01   0.0000000000e+00
  -6.5555555556e-01   5.5218525133e+00  -1.0658411918e-03   1.0658406267e-03   7.8539759540e-01   6.7897180327e-01   0.0000000000e+00
  -6.5000000000e-01   5.5286793313e+00  -1.6771564257e-03   1.6771540673e-03   7.8539675701e-01   6.7913056957e-01   0.0000000000e+00
  -6.4444444444e-01   5.5357877565e+00  -2.3449462391e-03   2.3449398095e-03   7.8539541401e-01   6.7927287396e-01  -7.6918507455e-16
  -6.3888888889e-01   5.5439123962e+00  -3.0561774814e-03   3.0561632203e-03   7.8539349338e-01   6.7951052816e-01   1.9229626864e-16
  -6.3333333333e-01   5.5534847755e+00  -3.7361097127e-03   3.7360836495e-03   7.8539118419e-01   6.7994723161e-01   0.0000000000e+00
  -6.2777777778e-01   5.5634076777e+00  -4.3116589509e-03   4.3116188756e-03   7.8538886836e-01   6.8069345517e-01   0.0000000000e+00
  -6.2222222222e-01   5.5717495546e+00  -4.7456053950e-03   4.7455519663e-03   7.8538690319e-01   6.8170192536e-01   1.9229626864e-16
  -6.1666666667e-01   5.5778581386e+00  -4.9611766305e-03   4.9611155794e-03   7.8538585685e-01   6.8287226851e-01   0.0000000000e+00
  -6.1111111111e-01   5.5819631949e+00  -4.9340693418e-03   4.9340092886e-03   7.8538599101e-01   6.8417611536e-01   0.0000000000e+00
  -6.0555555556e-01   5.5825383497e+00  -4.7685238313e-03   4.7684696256e-03   7.8538679410e-01   6.8562108433e-01   0.0000000000e+00
  -6.0000000000e-01   5.5775152798e+00  -4.4340350815e-03   4.4339915041e-03   7.8538833319e-01   6.8728742894e-01  -1.9229626864e-16
  -5.9444444444e-01   5.5649760129e+00  -3.8636077794e-03   3.8635789436e-03   7.8539069978e-01   6.8923860100e-01   0.0000000000e+00
  -5.8888888889e-01   5.5442635628e+00  -3.1062854574e-03   3.1062704830e-03   7.8539333896e-01   6.9140398037e-01  -1.9229626864e-16
  -5.8333333333e-01   5.5181492935e+00  -2.2136481725e-03   2.2136427657e-03   7.8539571335e-01   6.9371186998e-01  -3.8459253728e-16
  -5.7777777778e-01   5.4884121902e+00  -1.3558192974e-03   1.3558180464e-03   7.8539724425e-01   6.9586579664e-01  -5.7688880592e-16
  -5.7222222222e-01   5.4579171914e+00  -7.0125205184e-04   7.0125189599e-04   7.8539791759e-01   6.9768631009e-01   0.0000000000e+00
  -5.6666666667e-01   5.4282627107e+00  -2.8194618190e-04   2.8194702928e-04   7.8539812363e-01   6.9923116824e-01   0.0000000000e+00
  -5.6111111111e-01   5.3999541317e+00   4.8683249125e-05  -4.8683396653e-05   7.8539816220e-01   7.0055312422e-01   0.0000000000e+00
  -5.5555555556e-01   5.3730015448e+00   4.6431353698e-04  -4.6431353660e-04   7.8539805557e-01   7.0175234451e-01   0.0000000000e+00
  -5.5000000000e-01   5.3472327539e+00   1.0028233825e-03  -1.0028229342e-03   7.8539766068e-01   7.0296793813e-01   0.0000000000e+00
  -5.4444444444e-01   5.3207627088e+00   1.6015405282e-03  -1.6015385072e-03   7.8539688102e-01   7.0425248923e-01   1.9229626864e-16
  -5.3888888889e-01   5.2912306019e+00   2.2356813975e-03  -2.2356758078e-03   7.8539566437e-01   7.0561819439e-01   0.0000000000e+00
  -5.3333333333e-01   5.2595382888e+00   2.9237721803e-03  -2.9237596788e-03   7.8539388927e-01   7.0708579460e-01   0.0000000000e+00
  -5.2777777778e-01   5.2296591962e+00   3.6625180990e-03  -3.6624935433e-03   7.8539145637e-01   7.0866459563e-01   0.0000000000e+00
  -5.2222222222e-01   5.2045964402e+00   4.3101799274e-03  -4.3101398913e-03   7.8538887473e-01   7.1024864129e-01   0.0000000000e+00
  -5.1666666667e-01   5.1845692263e+00   4.8621800009e-03  -4.8621225380e-03   7.8538634316e-01   7.1163041783e-01  -1.9229626864e-16
  -5.1111111111e-01   5.1684380581e+00   5.4441387162e-03  -5.4440580384e-03   7.8538334430e-01   7.1261973901e-01   0.0000000000e+00
  -5.0555555556e-01   5.1529929339e+00   6.1735190110e-03  -6.1734013811e-03   7.8537910747e-01   7.1325898682e-01   0.0000000000e+00
  -5.0000000000e-01   5.1366057896e+00   7.0093972443e-03  -7.0092250619e-03   7.8537359797e-01   7.1361296047e-01   0.0000000000e+00
  -4.9444444444e-01   5.1205447602e+00   7.7951658454e-03  -7.7949290270e-03   7.8536778180e-01   7.1371736714e-01   0.0000000000e+00
  -4.8888888889e-01   5.1067092365e+00   8.3991743078e-03  -8.3988780629e-03   7.8536289126e-01   7.1356752148e-01  -3.8459253728e-16
  -4.8333333333e-01   5.0943173437e+00   8.7797440937e-03  -8.7794057275e-03   7.8535962250e-01   7.1328024098e-01   1.9229626864e-16
  -4.7777777778e-01   5.0802034182e+00   8.9654187079e-03  -8.9650584224e-03   7.8535797510e-01   7.1294224056e-01  -1.9229626864e-16
  -4.7222222222e-01   5.0624754434e+00   8.9344614231e-03  -8.9341048592e-03   7.8535825224e-01   7.1262289508e-01   1.9229626864e-16
  -4.6666666667e-01   5.0420230030e+00   8.6473179300e-03  -8.6469946445e-03   7.8536077635e-01   7.1247997242e-01  -3.8459253728e-16
  -4.6111111111e-01   5.0205918572e+00   8.1399733552e-03  -8.1397036999e-03   7.8536503464e-01   7.1261631504e-01   0.0000000000e+00
  -4.5555555556e-01   4.9988109998e+00   7.5033549689e-03  -7.5031437616e-03   7.8537001379e-01   7.1296386058e-01  -1.9229626864e-16
  -4.5000000000e-01   4.9769547671e+00   6.8456079285e-03  -6.8454475424e-03   7.8537473262e-01   7.1344976636e-01   0.0000000000e+00
  -4.4444444444e-01   4.9559950791e+00   6.2137212820e-03  -6.2136013358e-03   7.8537885851e-01   7.1400139458e-01  -1.9229626864e-16
  -4.3888888889e-01   4.9376892753e+00   5.5927707438e-03  -5.5926832855e-03   7.8538252412e-01   7.1463103567e-01  -1.9229626864e-16
  -4.3333333333e-01   4.9220163183e+00   4.9479211777e-03  -4.9478606121e-03   7.8538592262e-01   7.1536078888e-01  -1.9229626864e-16
  -4.2777777778e-01   4.9074162276e+00   4.2214172585e-03  -4.2213796436e-03   7.8538925324e-01   7.1622065730e-01   0.0000000000e+00
  -4.2222222222e-01   4.8925425819e+00   3.4081614735e-03  -3.4081416849e-03   7.8539235567e-01   7.1730997888e-01   0.0000000000e+00
  -4.1666666667e-01   4.8759690202e+00   2.4826773363e-03  -2.4826697079e-03   7.8539508165e-01   7.1874474802e-01   0.0000000000e+00
  -4.1111111111e-01   4.8577406548e+00   1.4848745875e-03  -1.4848729609e-03   7.8539706108e-01   7.2058730396e-01  -3.8459253728e-16
  -4.0555555556e-01   4.8390061865e+00   4.6012732599e-04  -4.6012738933e-04   7.8539805750e-01   7.2275977643e-01   0.0000000000e+00
  -4.0000000000e-01   4.8211114730e+00  -5.3248666668e-04   5.3248669263e-04   7.8539802162e-01   7.2508981687e-01   1.9229626864e-16
  -3.9444444444e-01   4.8046189359e+00  -1.4007493811e-03   1.4007480308e-03   7.8539718237e-01   7.2750809944e-01   0.0000000000e+00
  -3.8888888889e-01   4.7891448346e+00  -2.1031637917e-03   2.1031591605e-03   7.8539595179e-01   7.2999331781e-01  -3.8459253728e-16
  -3.8333333333e-01   4.7737811694e+00  -2.6560392759e-03   2.6560299261e-03   7.8539463611e-01   7.3246379491e-01   1.9229626864e-16
  -3.7777777778e-01   4.7578550347e+00  -3.1027135357e-03   3.1026986020e-03   7.8539335004e-01   7.3482834566e-01  -3.8459253728e-16
  -3.7222222222e-01   4.7411687402e+00  -3.4732222628e-03   3.4732013174e-03   7.8539213184e-01   7.3706913108e-01   0.0000000000e+00
  -3.6666666667e-01   4.7229981866e+00  -3.8041087832e-03   3.8040812683e-03   7.8539092787e-01   7.3923014959e-01   1.9229626864e-16
  -3.6111111111e-01   4.7036007742e+00  -4.1305612238e-03   4.1305259832e-03   7.8538963266e-01   7.4137760441e-01   0.0000000000e+00
  -3.5555555556e-01   4.6827431869e+00  -4.4246125182e-03   4.4245692051e-03   7.8538837490e-01   7.4352638021e-01   1.9229626864e-16
  -3.5000000000e-01   4.6602810669e+00  -4.6188911515e-03   4.6188418823e-03   7.8538749649e-01   7.4569194401e-01   1.9229626864e-16
  -3.4444444444e-01   4.6374789557e+00  -4.7279252161e-03   4.7278723816e-03   7.8538698687e-01   7.4783452846e-01  -3.8459253728e-16
  -3.3888888889e-01   4.6155276997e+00  -4.7675774909e-03   4.7675233199e-03   7.8538679861e-01   7.4991319138e-01   0.0000000000e+00
  -3.3333333333e-01   4.5951516948e+00  -4.7782610018e-03   4.7782064598e-03   7.8538674765e-01   7.5196939860e-01   0.0000000000e+00
  -3.2777777778e-01   4.5769411692e+00  -4.7922079737e-03   4.7921529483e-03   7.8538668096e-01   7.5399416973e-01   1.9229626864e-16
  -3.2222222222e-01   4.5615817575e+00  -4.8785063703e-03   4.8784483248e-03   7.8538626356e-01   7.5593623616e-01   0.0000000000e+00
  -3.1666666667e-01   4.5499204039e+00  -5.0937893115e-03   5.0937232408e-03   7.8538519020e-01   7.5773840984e-01   0.0000000000e+00
  -3.1111111111e-01   4.5415321876e+00  -5.3929601329e-03   5.3928817186e-03   7.8538362155e-01   7.5940639539e-01   0.0000000000e+00
  -3.0555555556e-01   4.5356438733e+00  -5.6765885765e-03   5.6764971173e-03   7.8538205176e-01   7.6093286517e-01   1.9229626864e-16
  -3.0000000000e-01   4.5314850716e+00  -5.9070041194e-03   5.9069010718e-03   7.8538071723e-01   7.6237387638e-01  -3.8459253728e-16
  -2.9444444444e-01   4.5279566972e+00  -6.0457661861e-03   6.0456557000e-03   7.8537988798e-01   7.6374451389e-01   0.0000000000e+00
  -2.8888888889e-01   4.5244628774e+00  -6.0003440837e-03   6.0002360680e-03   7.8538016164e-01   7.6499360512e-01   1.9229626864e-16
  -2.8333333333e-01   4.5207422678e+00  -5.7329115781e-03   5.7328173776e-03   7.8538173054e-01   7.6608441463e-01  -3.8459253728e-16
  -2.7777777778e-01   4.5175798340e+00  -5.2631021170e-03   5.2630292289e-03   7.8538431350e-01   7.6706518959e-01   1.9229626864e-16
  -2.7222222222e-01   4.5149626793e+00  -4.6577596746e-03   4.6577091559e-03   7.8538731619e-01   7.6798047135e-01   1.9229626864e-16
  -2.6666666667e-01   4.5122887217e+00  -4.0223113689e-03   4.0222788447e-03   7.8539007405e-01   7.6878541497e-01   0.0000000000e+00
  -2.6111111111e-01   4.5087346449e+00  -3.3997330383e-03   3.3997134071e-03   7.8539238434e-01   7.6944426780e-01   1.9229626864e-16
  -2.5555555556e-01   4.5032735548e+00  -2.7676225390e-03   2.7676119481e-03   7.8539433359e-01   7.7001649335e-01  -3.8459253728e-16
  -2.5000000000e-01   4.4957265830e+00  -2.1368627654e-03   2.1368578792e-03   7.8539588040e-01   7.7052518314e-01  -3.8459253728e-16
  -2.4444444444e-01   4.4863123182e+00  -1.5551272891e-03   1.5551254350e-03   7.8539695423e-01   7.7095536938e-01  -3.8459253728e-16
  -2.3888888889e-01   4.4753794419e+00  -1.0585290845e-03   1.0585284852e-03   7.8539760316e-01   7.7130634917e-01   0.0000000000e+00
  -2.3333333333e-01   4.4629308626e+00  -6.9671494378e-04   6.9671476498e-04   7.8539792076e-01   7.7159261236e-01  -3.8459253728e-16
  -2.2777777778e-01   4.4489805212e+00  -5.1380447512e-04   5.1380439903e-04   7.8539803138e-01   7.7189963659e-01   0.0000000000e+00
  -2.2222222222e-01   4.4334235142e+00  -5.0633170329e-04   5.0633166827e-04   7.8539803519e-01   7.7233461683e-01   1.9229626864e-16
  -2.1666666667e-01   4.4157483158e+00  -6.4901010399e-04   6.4901005154e-04   7.8539795283e-01   7.7301526802e-01   0.0000000000e+00
  -2.1111111111e-01   4.3957286024e+00  -9.4247537860e-04   9.4247499340e-04   7.8539771933e-01   7.7399260909e-01   0.0000000000e+00
  -2.0555555556e-01   4.3734628747e+00  -1.3705497223e-03   1.3705484650e-03   7.8539722418e-01   7.7524106220e-01  -3.8459253728e-16
  -2.0000000000e-01   4.3492922518e+00  -1.8985012646e-03   1.8984978520e-03   7.8539636128e-01   7.7667884618e-01   0.0000000000e+00
  -1.9444444444e-01   4.3236421951e+00  -2.5062756158e-03   2.5062677408e-03   7.8539502268e-01   7.7824790754e-01   0.0000000000e+00
  -1.8888888889e-01   4.2970700825e+00  -3.1603564593e-03   3.1603406727e-03   7.8539316951e-01   7.7992363953e-01  -3.8459253728e-16
