# time = 200
# Grid points = 544
# Pressure (Pa) = 101325
#             1_pos             2_posf             3_uvel             4_vvel             5_wvel
  -9.9855330628e-01  -1.0000000000e+00   3.3671964918e-01  -3.7958125656e-02  -3.7958125656e-02
  -9.9565991884e-01  -9.9710661256e-01   1.0050559254e+00  -1.1370337100e-01  -1.1370337100e-01
  -9.9263069366e-01  -9.9421322512e-01   1.7004016764e+00  -1.9241017716e-01  -1.9241017716e-01
  -9.8942480681e-01  -9.9104816220e-01   2.4277560768e+00  -2.7401027200e-01  -2.7401027200e-01
  -9.8613030311e-01  -9.8780145142e-01   3.1567069835e+00  -3.5438021003e-01  -3.5438021003e-01
  -9.8272720332e-01  -9.8445915480e-01   3.8823819674e+00  -4.3227340101e-01  -4.3227340101e-01
  -9.7918521768e-01  -9.8099525183e-01   4.6053647359e+00  -5.0704626662e-01  -5.0704626662e-01
  -9.7546607102e-01  -9.7737518353e-01   5.3278400228e+00  -5.7821667289e-01  -5.7821667289e-01
  -9.7152274131e-01  -9.7355695851e-01   6.0511983774e+00  -6.4520871493e-01  -6.4520871493e-01
  -9.6729590446e-01  -9.6948852411e-01   6.7761890334e+00  -7.0741346251e-01  -7.0741346251e-01
  -9.6271297502e-01  -9.6510328481e-01   7.5033893574e+00  -7.6433127279e-01  -7.6433127279e-01
  -9.5772132169e-01  -9.6032266523e-01   8.2309114498e+00  -8.1560172623e-01  -8.1560172623e-01
  -9.5239311114e-01  -9.5511997815e-01   8.9518963115e+00  -8.6136528488e-01  -8.6136528488e-01
  -9.4824622359e-01  -9.4966624413e-01   9.4920068316e+00  -8.9338974803e-01  -8.9338974803e-01
  -9.4540618251e-01  -9.4682620305e-01   9.8520126919e+00  -9.1459277531e-01  -9.1459277531e-01
  -9.4244664903e-01  -9.4398616197e-01   1.0214697496e+01  -9.3628744524e-01  -9.3628744524e-01
  -9.3936762314e-01  -9.4090713609e-01   1.0576548074e+01  -9.5885814870e-01  -9.5885814870e-01
  -9.3614147978e-01  -9.3782811020e-01   1.0939513294e+01  -9.8301924840e-01  -9.8301924840e-01
  -9.3276821892e-01  -9.3445484935e-01   1.1301657720e+01  -1.0094290485e+00  -1.0094290485e+00
  -9.2923881699e-01  -9.3108158850e-01   1.1663980846e+01  -1.0387244280e+00  -1.0387244280e+00
  -9.2555327398e-01  -9.2739604549e-01   1.2025114342e+01  -1.0715326697e+00  -1.0715326697e+00
  -9.2169004177e-01  -9.2371050247e-01   1.2386794308e+01  -1.1082778244e+00  -1.1082778244e+00
  -9.1764912036e-01  -9.1966958106e-01   1.2746352873e+01  -1.1490741436e+00  -1.1490741436e+00
  -9.1334498725e-01  -9.1562865965e-01   1.3108778461e+01  -1.1942095665e+00  -1.1942095665e+00
  -9.0877764244e-01  -9.1106131484e-01   1.3467366109e+01  -1.2426541274e+00  -1.2426541274e+00
  -9.0381071072e-01  -9.0649397003e-01   1.3827586250e+01  -1.2939824668e+00  -1.2939824668e+00
  -8.9844419210e-01  -9.0112745141e-01   1.4182852359e+01  -1.3456556312e+00  -1.3456556312e+00
  -8.9401124963e-01  -8.9576093279e-01   1.4451803355e+01  -1.3832273314e+00  -1.3832273314e+00
  -8.9051188330e-01  -8.9226156646e-01   1.4647949778e+01  -1.4086100408e+00  -1.4086100408e+00
  -8.8701251697e-01  -8.8876220014e-01   1.4825118233e+01  -1.4284850646e+00  -1.4284850646e+00
  -8.8351315064e-01  -8.8526283381e-01   1.4981137351e+01  -1.4418611976e+00  -1.4418611976e+00
  -8.7938539567e-01  -8.8176346748e-01   1.5138837335e+01  -1.4491481759e+00  -1.4491481759e+00
  -8.7462925204e-01  -8.7700732385e-01   1.5280373736e+01  -1.4434445565e+00  -1.4434445565e+00
  -8.6987310842e-01  -8.7225118023e-01   1.5384068798e+01  -1.4233528547e+00  -1.4233528547e+00
  -8.6511696480e-01  -8.6749503661e-01   1.5451895827e+01  -1.3890299887e+00  -1.3890299887e+00
  -8.6036082118e-01  -8.6273889299e-01   1.5486330309e+01  -1.3407991349e+00  -1.3407991349e+00
  -8.5560467755e-01  -8.5798274936e-01   1.5490886673e+01  -1.2796071995e+00  -1.2796071995e+00
  -8.5084853393e-01  -8.5322660574e-01   1.5470193659e+01  -1.2078919883e+00  -1.2078919883e+00
  -8.4609239031e-01  -8.4847046212e-01   1.5429116879e+01  -1.1278772517e+00  -1.1278772517e+00
  -8.4226556574e-01  -8.4371431850e-01   1.5382860225e+01  -1.0570803552e+00  -1.0570803552e+00
  -8.3936806022e-01  -8.4081681298e-01   1.5343546657e+01  -1.0015782861e+00  -1.0015782861e+00
  -8.3647055471e-01  -8.3791930746e-01   1.5301353221e+01  -9.4500891762e-01  -9.4500891762e-01
  -8.3357304919e-01  -8.3502180195e-01   1.5257615062e+01  -8.8804094232e-01  -8.8804094232e-01
  -8.3067554367e-01  -8.3212429643e-01   1.5213595561e+01  -8.3122638638e-01  -8.3122638638e-01
  -8.2777803816e-01  -8.2922679092e-01   1.5170520327e+01  -7.7509475704e-01  -7.7509475704e-01
  -8.2488053264e-01  -8.2632928540e-01   1.5129581637e+01  -7.2018348010e-01  -7.2018348010e-01
  -8.2198302713e-01  -8.2343177988e-01   1.5091922196e+01  -6.6702305234e-01  -6.6702305234e-01
  -8.1908552161e-01  -8.2053427437e-01   1.5058619442e+01  -6.1611765545e-01  -6.1611765545e-01
  -8.1618801609e-01  -8.1763676885e-01   1.5030676901e+01  -5.6793354400e-01  -5.6793354400e-01
  -8.1329051058e-01  -8.1473926334e-01   1.5009018794e+01  -5.2289054914e-01  -5.2289054914e-01
  -8.1039300506e-01  -8.1184175782e-01   1.4994479638e+01  -4.8135415412e-01  -4.8135415412e-01
  -8.0749549955e-01  -8.0894425230e-01   1.4987777519e+01  -4.4363468303e-01  -4.4363468303e-01
  -8.0459799403e-01  -8.0604674679e-01   1.4989466304e+01  -4.1000140013e-01  -4.1000140013e-01
  -8.0170048851e-01  -8.0314924127e-01   1.4999888130e+01  -3.8069903620e-01  -3.8069903620e-01
  -7.9880298300e-01  -8.0025173576e-01   1.5019172337e+01  -3.5592287345e-01  -3.5592287345e-01
  -7.9556631331e-01  -7.9735423024e-01   1.5050593926e+01  -3.3337459048e-01  -3.3337459048e-01
  -7.9199047945e-01  -7.9377839638e-01   1.5098625748e+01  -3.1526938026e-01  -3.1526938026e-01
  -7.8841464560e-01  -7.9020256253e-01   1.5159608810e+01  -3.0355240621e-01  -3.0355240621e-01
  -7.8483881174e-01  -7.8662672867e-01   1.5232602676e+01  -2.9778925500e-01  -2.9778925500e-01
  -7.8126297788e-01  -7.8305089481e-01   1.5315964258e+01  -2.9749309035e-01  -2.9749309035e-01
  -7.7768714403e-01  -7.7947506096e-01   1.5407751508e+01  -3.0206429531e-01  -3.0206429531e-01
  -7.7411131017e-01  -7.7589922710e-01   1.5506191282e+01  -3.1080368289e-01  -3.1080368289e-01
  -7.7053547631e-01  -7.7232339324e-01   1.5609837620e+01  -3.2297078686e-01  -3.2297078686e-01
  -7.6731501064e-01  -7.6874755939e-01   1.5706535753e+01  -3.3631333916e-01  -3.3631333916e-01
  -7.6444991314e-01  -7.6588246189e-01   1.5793823815e+01  -3.4938601111e-01  -3.4938601111e-01
  -7.6158481564e-01  -7.6301736439e-01   1.5881510366e+01  -3.6323155482e-01  -3.6323155482e-01
  -7.5871971814e-01  -7.6015226689e-01   1.5969046022e+01  -3.7745696126e-01  -3.7745696126e-01
  -7.5585462064e-01  -7.5728716939e-01   1.6055981136e+01  -3.9167710047e-01  -3.9167710047e-01
  -7.5298952314e-01  -7.5442207189e-01   1.6141479601e+01  -4.0544797620e-01  -4.0544797620e-01
  -7.5012442564e-01  -7.5155697439e-01   1.6223911187e+01  -4.1821645375e-01  -4.1821645375e-01
  -7.4725932814e-01  -7.4869187689e-01   1.6301162753e+01  -4.2938523180e-01  -4.2938523180e-01
  -7.4305710271e-01  -7.4582677939e-01   1.6404824149e+01  -4.4277003634e-01  -4.4277003634e-01
  -7.3751774936e-01  -7.4028742603e-01   1.6517113351e+01  -4.5178167235e-01  -4.5178167235e-01
  -7.3197839600e-01  -7.3474807268e-01   1.6604619890e+01  -4.5095457335e-01  -4.5095457335e-01
  -7.2643904265e-01  -7.2920871933e-01   1.6663987903e+01  -4.3904136895e-01  -4.3904136895e-01
  -7.2089968929e-01  -7.2366936597e-01   1.6693641601e+01  -4.1551560337e-01  -4.1551560337e-01
  -7.1536033594e-01  -7.1813001262e-01   1.6694425890e+01  -3.8065264886e-01  -3.8065264886e-01
  -7.0982098259e-01  -7.1259065926e-01   1.6668594901e+01  -3.3553867212e-01  -3.3553867212e-01
  -7.0428162923e-01  -7.0705130591e-01   1.6618289153e+01  -2.8107469587e-01  -2.8107469587e-01
  -6.9964577869e-01  -7.0151195256e-01   1.6555141053e+01  -2.2635026822e-01  -2.2635026822e-01
  -6.9591343096e-01  -6.9777960483e-01   1.6494632941e+01  -1.7879821465e-01  -1.7879821465e-01
  -6.9218108323e-01  -6.9404725709e-01   1.6425870625e+01  -1.2869233985e-01  -1.2869233985e-01
  -6.8844873550e-01  -6.9031490936e-01   1.6349918337e+01  -7.6505375305e-02  -7.6505375305e-02
  -6.8471638777e-01  -6.8658256163e-01   1.6267678166e+01  -2.2558415538e-02  -2.2558415538e-02
  -6.8098404004e-01  -6.8285021390e-01   1.6180294396e+01   3.2639903593e-02   3.2639903593e-02
  -6.7725169231e-01  -6.7911786617e-01   1.6089218398e+01   8.8357368603e-02   8.8357368603e-02
  -6.7351934458e-01  -6.7538551844e-01   1.5995938500e+01   1.4383891380e-01   1.4383891380e-01
  -6.6980362611e-01  -6.7165317071e-01   1.5902364347e+01   1.9811605111e-01   1.9811605111e-01
  -6.6610453691e-01  -6.6795408151e-01   1.5810182957e+01   2.5040590710e-01   2.5040590710e-01
  -6.6240544771e-01  -6.6425499231e-01   1.5720365885e+01   3.0034680775e-01   3.0034680775e-01
  -6.5870635851e-01  -6.6055590311e-01   1.5633899245e+01   3.4759529251e-01   3.4759529251e-01
  -6.5500726932e-01  -6.5685681392e-01   1.5551720168e+01   3.9186344860e-01   3.9186344860e-01
  -6.5130818012e-01  -6.5315772472e-01   1.5474869079e+01   4.3282561280e-01   4.3282561280e-01
  -6.4760909092e-01  -6.4945863552e-01   1.5404147322e+01   4.7029502901e-01   4.7029502901e-01
  -6.4391000172e-01  -6.4575954632e-01   1.5339901470e+01   5.0433781789e-01   5.0433781789e-01
  -6.4040730809e-01  -6.4206045712e-01   1.5285562148e+01   5.3338658455e-01   5.3338658455e-01
  -6.3710101003e-01  -6.3875415906e-01   1.5240448868e+01   5.5795901672e-01   5.5795901672e-01
  -6.3379471197e-01  -6.3544786100e-01   1.5202098752e+01   5.7957786265e-01   5.7957786265e-01
  -6.3048841390e-01  -6.3214156294e-01   1.5170781585e+01   5.9830701161e-01   5.9830701161e-01
  -6.2718211584e-01  -6.2883526487e-01   1.5146555112e+01   6.1432914969e-01   6.1432914969e-01
  -6.2387581778e-01  -6.2552896681e-01   1.5129380145e+01   6.2788012682e-01   6.2788012682e-01
  -6.2056951972e-01  -6.2222266875e-01   1.5119154065e+01   6.3921403813e-01   6.3921403813e-01
  -6.1726322166e-01  -6.1891637069e-01   1.5115721865e+01   6.4857966010e-01   6.4857966010e-01
  -6.1395692360e-01  -6.1561007263e-01   1.5118866815e+01   6.5622180404e-01   6.5622180404e-01
  -6.1065062554e-01  -6.1230377457e-01   1.5128285353e+01   6.6240482057e-01   6.6240482057e-01
  -6.0734432747e-01  -6.0899747650e-01   1.5143587036e+01   6.6742868192e-01   6.6742868192e-01
  -6.0403802941e-01  -6.0569117844e-01   1.5164334293e+01   6.7162383189e-01   6.7162383189e-01
  -6.0073173135e-01  -6.0238488038e-01   1.5190074676e+01   6.7533298228e-01   6.7533298228e-01
  -5.9742543329e-01  -5.9907858232e-01   1.5220292207e+01   6.7888866934e-01   6.7888866934e-01
  -5.9411913523e-01  -5.9577228426e-01   1.5254309772e+01   6.8259393971e-01   6.8259393971e-01
  -5.9081283717e-01  -5.9246598620e-01   1.5291362881e+01   6.8671961239e-01   6.8671961239e-01
  -5.8661228737e-01  -5.8915968814e-01   1.5341578587e+01   6.9280932666e-01   6.9280932666e-01
  -5.8151748583e-01  -5.8406488660e-01   1.5407435428e+01   7.0242624474e-01   7.0242624474e-01
  -5.7642268429e-01  -5.7897008506e-01   1.5476561358e+01   7.1475718247e-01   7.1475718247e-01
  -5.7132788275e-01  -5.7387528352e-01   1.5547527511e+01   7.3003995042e-01   7.3003995042e-01
  -5.6623308121e-01  -5.6878048198e-01   1.5619498452e+01   7.4826310261e-01   7.4826310261e-01
  -5.6113827968e-01  -5.6368568045e-01   1.5691978240e+01   7.6910568236e-01   7.6910568236e-01
  -5.5604347814e-01  -5.5859087891e-01   1.5764801388e+01   7.9197288317e-01   7.9197288317e-01
  -5.5094867660e-01  -5.5349607737e-01   1.5839008367e+01   8.1634331359e-01   8.1634331359e-01
  -5.4633731593e-01  -5.4840127583e-01   1.5910203558e+01   8.3961792439e-01   8.3961792439e-01
  -5.4220939614e-01  -5.4427335604e-01   1.5976821956e+01   8.6039059483e-01   8.6039059483e-01
  -5.3808147634e-01  -5.4014543624e-01   1.6046553499e+01   8.8024677450e-01   8.8024677450e-01
  -5.3395355655e-01  -5.3601751645e-01   1.6119831021e+01   8.9837938555e-01   8.9837938555e-01
  -5.2982563675e-01  -5.3188959665e-01   1.6197055865e+01   9.1402521339e-01   9.1402521339e-01
  -5.2569771696e-01  -5.2776167685e-01   1.6278556789e+01   9.2649402551e-01   9.2649402551e-01
  -5.2156979716e-01  -5.2363375706e-01   1.6364947328e+01   9.3518800123e-01   9.3518800123e-01
  -5.1744187737e-01  -5.1950583726e-01   1.6457913893e+01   9.3960193025e-01   9.3960193025e-01
  -5.1392101776e-01  -5.1537791747e-01   1.6544603606e+01   9.3930812710e-01   9.3930812710e-01
  -5.1100721834e-01  -5.1246411805e-01   1.6620394994e+01   9.3648865792e-01   9.3648865792e-01
  -5.0809341891e-01  -5.0955031862e-01   1.6699757940e+01   9.3096900991e-01   9.3096900991e-01
  -5.0517961949e-01  -5.0663651920e-01   1.6782325443e+01   9.2268146962e-01   9.2268146962e-01
  -5.0226582007e-01  -5.0372271978e-01   1.6867933293e+01   9.1159612110e-01   9.1159612110e-01
  -4.9935202065e-01  -5.0080892036e-01   1.6956483323e+01   8.9772272730e-01   8.9772272730e-01
  -4.9643822123e-01  -4.9789512094e-01   1.7047707345e+01   8.8114533085e-01   8.8114533085e-01
  -4.9352442180e-01  -4.9498132151e-01   1.7141190617e+01   8.6201086776e-01   8.6201086776e-01
  -4.8966943417e-01  -4.9206752209e-01   1.7267773120e+01   8.3344179534e-01   8.3344179534e-01
  -4.8487325833e-01  -4.8727134625e-01   1.7433085488e+01   7.9118735034e-01   7.9118735034e-01
  -4.8007708249e-01  -4.8247517041e-01   1.7606051479e+01   7.4271147088e-01   7.4271147088e-01
  -4.7528090666e-01  -4.7767899457e-01   1.7783662624e+01   6.8921255377e-01   6.8921255377e-01
  -4.7056860284e-01  -4.7288281874e-01   1.7960746357e+01   6.3271594967e-01   6.3271594967e-01
  -4.6594017105e-01  -4.6825438695e-01   1.8135464065e+01   5.7448262488e-01   5.7448262488e-01
  -4.6131173926e-01  -4.6362595516e-01   1.8309812978e+01   5.1436681407e-01   5.1436681407e-01
  -4.5668330747e-01  -4.5899752337e-01   1.8482092011e+01   4.5343669734e-01   4.5343669734e-01
  -4.5179601331e-01  -4.5436909158e-01   1.8658973363e+01   3.8974212493e-01   3.8974212493e-01
  -4.4664985677e-01  -4.4922293504e-01   1.8837555779e+01   3.2463784056e-01   3.2463784056e-01
  -4.4150370024e-01  -4.4407677850e-01   1.9007643156e+01   2.6233302212e-01   2.6233302212e-01
  -4.3635754370e-01  -4.3893062197e-01   1.9170116693e+01   2.0297294597e-01   2.0297294597e-01
  -4.3216406023e-01  -4.3378446543e-01   1.9297970284e+01   1.5674134926e-01   1.5674134926e-01
  -4.2892324984e-01  -4.3054365504e-01   1.9393298105e+01   1.2264334977e-01   1.2264334977e-01
  -4.2568243945e-01  -4.2730284465e-01   1.9484609353e+01   9.0456092586e-02   9.0456092586e-02
  -4.2244162906e-01  -4.2406203426e-01   1.9572003294e+01   6.0214936356e-02   6.0214936356e-02
  -4.1920081867e-01  -4.2082122386e-01   1.9655782680e+01   3.1873309800e-02   3.1873309800e-02
  -4.1596000828e-01  -4.1758041347e-01   1.9736112184e+01   5.4239177607e-03   5.4239177607e-03
  -4.1271919789e-01  -4.1433960308e-01   1.9812768036e+01  -1.9030718825e-02  -1.9030718825e-02
  -4.0947838750e-01  -4.1109879269e-01   1.9885086929e+01  -4.1274437939e-02  -4.1274437939e-02
  -4.0546447402e-01  -4.0785798230e-01   1.9968751301e+01  -6.5936171704e-02  -6.5936171704e-02
  -4.0067745745e-01  -4.0307096573e-01   2.0059494911e+01  -9.0748705521e-02  -9.0748705521e-02
  -3.9589044088e-01  -3.9828394917e-01   2.0143102427e+01  -1.1161058978e-01  -1.1161058978e-01
  -3.9110342432e-01  -3.9349693260e-01   2.0220467538e+01  -1.2886024450e-01  -1.2886024450e-01
  -3.8631640775e-01  -3.8870991603e-01   2.0292232247e+01  -1.4277957133e-01  -1.4277957133e-01
  -3.8152939118e-01  -3.8392289947e-01   2.0358939222e+01  -1.5366967868e-01  -1.5366967868e-01
  -3.7674237462e-01  -3.7913588290e-01   2.0420871196e+01  -1.6182536182e-01  -1.6182536182e-01
  -3.7195535805e-01  -3.7434886633e-01   2.0478768490e+01  -1.6757605974e-01  -1.6757605974e-01
  -3.6797275137e-01  -3.6956184977e-01   2.0524967965e+01  -1.7066649803e-01  -1.7066649803e-01
  -3.6479455457e-01  -3.6638365297e-01   2.0560550933e+01  -1.7228487875e-01  -1.7228487875e-01
  -3.6161635777e-01  -3.6320545617e-01   2.0594735126e+01  -1.7310752729e-01  -1.7310752729e-01
  -3.5843816098e-01  -3.6002725938e-01   2.0627620375e+01  -1.7321284224e-01  -1.7321284224e-01
  -3.5525996418e-01  -3.5684906258e-01   2.0659366298e+01  -1.7268775815e-01  -1.7268775815e-01
  -3.5208176738e-01  -3.5367086578e-01   2.0690085193e+01  -1.7161136648e-01  -1.7161136648e-01
  -3.4890357058e-01  -3.5049266898e-01   2.0719864707e+01  -1.7004979324e-01  -1.7004979324e-01
  -3.4572537379e-01  -3.4731447219e-01   2.0748814841e+01  -1.6805753747e-01  -1.6805753747e-01
  -3.4254717699e-01  -3.4413627539e-01   2.0777063290e+01  -1.6568172425e-01  -1.6568172425e-01
  -3.3936898019e-01  -3.4095807859e-01   2.0804712128e+01  -1.6296727782e-01  -1.6296727782e-01
  -3.3619078339e-01  -3.3777988179e-01   2.0831806802e+01  -1.5996022165e-01  -1.5996022165e-01
  -3.3301258660e-01  -3.3460168500e-01   2.0858346497e+01  -1.5670695425e-01  -1.5670695425e-01
  -3.2983438980e-01  -3.3142348820e-01   2.0884322498e+01  -1.5325042900e-01  -1.5325042900e-01
  -3.2665619300e-01  -3.2824529140e-01   2.0909746144e+01  -1.4962732698e-01  -1.4962732698e-01
  -3.2347799620e-01  -3.2506709460e-01   2.0934641574e+01  -1.4586947322e-01  -1.4586947322e-01
  -3.2029979941e-01  -3.2188889781e-01   2.0959030623e+01  -1.4200573641e-01  -1.4200573641e-01
  -3.1696284010e-01  -3.1871070101e-01   2.0984155344e+01  -1.3785990375e-01  -1.3785990375e-01
  -3.1346711828e-01  -3.1521497919e-01   2.1010043982e+01  -1.3342522552e-01  -1.3342522552e-01
  -3.0997139647e-01  -3.1171925737e-01   2.1035623277e+01  -1.2890620055e-01  -1.2890620055e-01
  -3.0647567465e-01  -3.0822353556e-01   2.1060948603e+01  -1.2431615117e-01  -1.2431615117e-01
  -3.0297995283e-01  -3.0472781374e-01   2.1086037881e+01  -1.1967093294e-01  -1.1967093294e-01
  -2.9948423102e-01  -3.0123209193e-01   2.1110899595e+01  -1.1498533869e-01  -1.1498533869e-01
  -2.9598850920e-01  -2.9773637011e-01   2.1135534556e+01  -1.1027346541e-01  -1.1027346541e-01
  -2.9249278738e-01  -2.9424064829e-01   2.1159934287e+01  -1.0554931423e-01  -1.0554931423e-01
  -2.8899706557e-01  -2.9074492648e-01   2.1184087742e+01  -1.0082574222e-01  -1.0082574222e-01
  -2.8550134375e-01  -2.8724920466e-01   2.1207988882e+01  -9.6113226930e-02  -9.6113226930e-02
  -2.8200562193e-01  -2.8375348284e-01   2.1231637086e+01  -9.1419975448e-02  -9.1419975448e-02
  -2.7850990012e-01  -2.8025776103e-01   2.1255033155e+01  -8.6752855275e-02  -8.6752855275e-02
  -2.7501417830e-01  -2.7676203921e-01   2.1278177760e+01  -8.2117841629e-02  -8.2117841629e-02
  -2.7151845649e-01  -2.7326631739e-01   2.1301072385e+01  -7.7519984708e-02  -7.7519984708e-02
  -2.6802273467e-01  -2.6977059558e-01   2.1323715643e+01  -7.2964303939e-02  -7.2964303939e-02
  -2.6452701285e-01  -2.6627487376e-01   2.1346098368e+01  -6.8456902924e-02  -6.8456902924e-02
  -2.6095229680e-01  -2.6277915194e-01   2.1368721795e+01  -6.3900707061e-02  -6.3900707061e-02
  -2.5729858652e-01  -2.5912544166e-01   2.1391600941e+01  -5.9296643038e-02  -5.9296643038e-02
  -2.5364487623e-01  -2.5547173138e-01   2.1414268644e+01  -5.4742605523e-02  -5.4742605523e-02
  -2.4999116595e-01  -2.5181802109e-01   2.1436726644e+01  -5.0241876692e-02  -5.0241876692e-02
  -2.4633745567e-01  -2.4816431081e-01   2.1458960078e+01  -4.5800947291e-02  -4.5800947291e-02
  -2.4268374538e-01  -2.4451060052e-01   2.1480951270e+01  -4.1426776456e-02  -4.1426776456e-02
  -2.3903003510e-01  -2.4085689024e-01   2.1502687792e+01  -3.7125213218e-02  -3.7125213218e-02
  -2.3537632481e-01  -2.3720317996e-01   2.1524166108e+01  -3.2900283615e-02  -3.2900283615e-02
  -2.3172261453e-01  -2.3354946967e-01   2.1545385323e+01  -2.8755410183e-02  -2.8755410183e-02
  -2.2806890425e-01  -2.2989575939e-01   2.1566337251e+01  -2.4695356541e-02  -2.4695356541e-02
  -2.2441519396e-01  -2.2624204910e-01   2.1587005657e+01  -2.0726373033e-02  -2.0726373033e-02
