# time = 100
# Grid points = 266
# Pressure (Pa) = 101325
#             1_pos             2_posf             3_uvel             4_vvel             5_wvel
  -9.9815579578e-01  -1.0000000000e+00   7.7050808624e-01   2.7882290670e-02   2.7882290670e-02
  -9.9537072947e-01  -9.9631159155e-01   1.8961300479e+00   7.3598929930e-02   7.3598929930e-02
  -9.9347137980e-01  -9.9442986740e-01   2.6500217757e+00   1.0788647294e-01   1.0788647294e-01
  -9.9153423492e-01  -9.9251289221e-01   3.4038319407e+00   1.4716053301e-01   1.4716053301e-01
  -9.8955378870e-01  -9.9055557764e-01   4.1576598162e+00   1.9266787803e-01   1.9266787803e-01
  -9.8752359713e-01  -9.8855199976e-01   4.9115847722e+00   2.4550380337e-01   2.4550380337e-01
  -9.8543598021e-01  -9.8649519450e-01   5.6656953462e+00   3.0651060187e-01   3.0651060187e-01
  -9.8328147568e-01  -9.8437676591e-01   6.4201071639e+00   3.7616081776e-01   3.7616081776e-01
  -9.8104785083e-01  -9.8218618544e-01   7.1749959100e+00   4.5441415543e-01   4.5441415543e-01
  -9.7871825051e-01  -9.7990951621e-01   7.9306665790e+00   5.4053827151e-01   5.4053827151e-01
  -9.7626748249e-01  -9.7752698481e-01   8.6877284833e+00   6.3287454927e-01   6.3287454927e-01
  -9.7365371277e-01  -9.7500798016e-01   9.4476145163e+00   7.2850570600e-01   7.2850570600e-01
  -9.7079689561e-01  -9.7229944537e-01   1.0214542772e+01   8.2269507079e-01   8.2269507079e-01
  -9.6750694124e-01  -9.6929434584e-01   1.1005151675e+01   9.0734851936e-01   9.0734851936e-01
  -9.6314491156e-01  -9.6571953664e-01   1.1884151383e+01   9.6162950484e-01   9.6162950484e-01
  -9.5518001152e-01  -9.6057028648e-01   1.2635115257e+01   9.1361485733e-01   9.1361485733e-01
  -9.4632026795e-01  -9.4978973656e-01   1.2847526712e+01   6.2200411255e-01   6.2200411255e-01
  -9.3938133071e-01  -9.4285079933e-01   1.2719364380e+01   2.7304142498e-01   2.7304142498e-01
  -9.3244239348e-01  -9.3591186210e-01   1.2587840440e+01  -6.9917559130e-02  -6.9917559130e-02
  -9.2550345625e-01  -9.2897292486e-01   1.2704309350e+01  -3.9247735870e-01  -3.9247735870e-01
  -9.1727063912e-01  -9.2203398763e-01   1.3017877123e+01  -4.7981456481e-01  -4.7981456481e-01
  -9.0972315661e-01  -9.1250729061e-01   1.3989935775e+01  -4.7527417350e-01  -4.7527417350e-01
  -9.0425375033e-01  -9.0693902261e-01   1.4847465582e+01  -3.9233786258e-01  -3.9233786258e-01
  -8.9776041784e-01  -9.0156847804e-01   1.5765475636e+01  -2.4611787029e-01  -2.4611787029e-01
  -8.8856973425e-01  -8.9395235763e-01   1.6274092215e+01  -9.2914766101e-02  -9.2914766101e-02
  -8.7780448747e-01  -8.8318711086e-01   1.6562714483e+01   1.7990010764e-01   1.7990010764e-01
  -8.6913074798e-01  -8.7242186409e-01   1.6450343857e+01   4.2743627025e-01   4.2743627025e-01
  -8.6254851578e-01  -8.6583963188e-01   1.6200399857e+01   6.5721689307e-01   6.5721689307e-01
  -8.5596628358e-01  -8.5925739968e-01   1.6012553413e+01   8.0994288239e-01   8.0994288239e-01
  -8.4938405137e-01  -8.5267516748e-01   1.5845886357e+01   9.5305558997e-01   9.5305558997e-01
  -8.4039343614e-01  -8.4609293527e-01   1.5848219199e+01   1.0624106914e+00   1.0624106914e+00
  -8.2899443787e-01  -8.3469393700e-01   1.6185497907e+01   1.0660333818e+00   1.0660333818e+00
  -8.2010401877e-01  -8.2329493874e-01   1.6708224620e+01   9.5204699916e-01   9.5204699916e-01
  -8.1372217882e-01  -8.1691309879e-01   1.6954148895e+01   8.8846921157e-01   8.8846921157e-01
  -8.0724361754e-01  -8.1053125885e-01   1.7374479703e+01   7.4070256289e-01   7.4070256289e-01
  -8.0066833493e-01  -8.0395597623e-01   1.7801781906e+01   5.7822871062e-01   5.7822871062e-01
  -7.9265059064e-01  -7.9738069362e-01   1.8181135416e+01   4.2383416078e-01   4.2383416078e-01
  -7.8319038468e-01  -7.8792048766e-01   1.8516045776e+01   2.9122071368e-01   2.9122071368e-01
  -7.7298400135e-01  -7.7846028170e-01   1.8862424069e+01   1.6873419806e-01   1.6873419806e-01
  -7.6203144065e-01  -7.6750772100e-01   1.9218182644e+01   6.2956280431e-02   6.2956280431e-02
  -7.5350578326e-01  -7.5655516030e-01   1.9445853448e+01   3.8805335555e-03   3.8805335555e-03
  -7.4740702918e-01  -7.5045640622e-01   1.9671404308e+01  -4.7861620079e-02  -4.7861620079e-02
  -7.4130827510e-01  -7.4435765214e-01   1.9851574598e+01  -8.4821840330e-02  -8.4821840330e-02
  -7.3520952102e-01  -7.3825889806e-01   2.0005032750e+01  -1.1159138345e-01  -1.1159138345e-01
  -7.2712904876e-01  -7.3216014398e-01   2.0247778225e+01  -1.4457370789e-01  -1.4457370789e-01
  -7.1706685832e-01  -7.2209795354e-01   2.0437040967e+01  -1.5721984201e-01  -1.5721984201e-01
  -7.0700466788e-01  -7.1203576310e-01   2.0571544038e+01  -1.4655108366e-01  -1.4655108366e-01
  -6.9694247744e-01  -7.0197357266e-01   2.0633027906e+01  -1.1019231875e-01  -1.1019231875e-01
  -6.8877886057e-01  -6.9191138222e-01   2.0639363730e+01  -7.3356630715e-02  -7.3356630715e-02
  -6.8251381728e-01  -6.8564633893e-01   2.0580621070e+01   4.5163345041e-04   4.5163345041e-04
  -6.7624877399e-01  -6.7938129563e-01   2.0566871926e+01   1.6376538319e-02   1.6376538319e-02
  -6.6998373069e-01  -6.7311625234e-01   2.0441723779e+01   1.2207964263e-01   1.2207964263e-01
  -6.6371868740e-01  -6.6685120905e-01   2.0419662769e+01   1.3956918772e-01   1.3956918772e-01
  -6.5745364411e-01  -6.6058616575e-01   2.0290130200e+01   2.3990526330e-01   2.3990526330e-01
  -6.5118860082e-01  -6.5432112246e-01   2.0258293753e+01   2.6580506998e-01   2.6580506998e-01
  -6.4492355752e-01  -6.4805607917e-01   2.0157046369e+01   3.4869292270e-01   3.4869292270e-01
  -6.3867192717e-01  -6.4179103588e-01   2.0129995622e+01   3.7559413157e-01   3.7559413157e-01
  -6.3243370977e-01  -6.3555281847e-01   2.0069927428e+01   4.4122289092e-01   4.4122289092e-01
  -6.2619549236e-01  -6.2931460107e-01   2.0048696028e+01   4.8277188067e-01   4.8277188067e-01
  -6.1995727496e-01  -6.2307638366e-01   2.0054546073e+01   5.1322384046e-01   5.1322384046e-01
  -6.1371905756e-01  -6.1683816626e-01   2.0087366860e+01   5.3279281087e-01   5.3279281087e-01
  -6.0748084015e-01  -6.1059994885e-01   2.0147104500e+01   5.4151221399e-01   5.4151221399e-01
  -6.0124262275e-01  -6.0436173145e-01   2.0234297032e+01   5.3918063280e-01   5.3918063280e-01
  -5.9500440534e-01  -5.9812351404e-01   2.0339494008e+01   5.2677998075e-01   5.2677998075e-01
  -5.8796957697e-01  -5.9188529664e-01   2.0475383954e+01   5.0215718260e-01   5.0215718260e-01
  -5.8013813764e-01  -5.8405385730e-01   2.0638185321e+01   4.6508931770e-01   4.6508931770e-01
  -5.7230669830e-01  -5.7622241797e-01   2.0819284882e+01   4.1733959040e-01   4.1733959040e-01
  -5.6447525897e-01  -5.6839097863e-01   2.0985666572e+01   3.6836373073e-01   3.6836373073e-01
  -5.5519573357e-01  -5.6055953930e-01   2.1170125013e+01   3.0807814929e-01   3.0807814929e-01
  -5.4446812211e-01  -5.4983192784e-01   2.1334143008e+01   2.4970007356e-01   2.4970007356e-01
  -5.3374051064e-01  -5.3910431638e-01   2.1468930161e+01   1.9957731934e-01   1.9957731934e-01
  -5.2301289918e-01  -5.2837670491e-01   2.1589293357e+01   1.5405465344e-01   1.5405465344e-01
  -5.1369476549e-01  -5.1764909345e-01   2.1661935557e+01   1.2561473229e-01   1.2561473229e-01
  -5.0578610955e-01  -5.0974043752e-01   2.1714075056e+01   1.0240047536e-01   1.0240047536e-01
  -4.9787745362e-01  -5.0183178159e-01   2.1751748782e+01   7.9644244536e-02   7.9644244536e-02
  -4.8996879769e-01  -4.9392312566e-01   2.1778819457e+01   5.3219794592e-02   5.3219794592e-02
  -4.8206014176e-01  -4.8601446972e-01   2.1796468874e+01   1.9947952125e-02   1.9947952125e-02
  -4.7415148582e-01  -4.7810581379e-01   2.1806269920e+01  -2.2807538770e-02  -2.2807538770e-02
  -4.6624282989e-01  -4.7019715786e-01   2.1809737543e+01  -7.4206321952e-02  -7.4206321952e-02
  -4.5833417396e-01  -4.6228850193e-01   2.1808996376e+01  -1.3346489421e-01  -1.3346489421e-01
  -4.5022449153e-01  -4.5437984599e-01   2.1806099856e+01  -2.0092246251e-01  -2.0092246251e-01
  -4.4191378260e-01  -4.4606913706e-01   2.1802747002e+01  -2.7390552446e-01  -2.7390552446e-01
  -4.3360307367e-01  -4.3775842813e-01   2.1800337356e+01  -3.4901823651e-01  -3.4901823651e-01
  -4.2529236474e-01  -4.2944771920e-01   2.1799834998e+01  -4.2229964967e-01  -4.2229964967e-01
  -4.1698165581e-01  -4.2113701027e-01   2.1801666291e+01  -4.9066661618e-01  -4.9066661618e-01
  -4.0867094688e-01  -4.1282630134e-01   2.1805833750e+01  -5.5156293422e-01  -5.5156293422e-01
  -4.0036023795e-01  -4.0451559241e-01   2.1812092371e+01  -6.0317221223e-01  -6.0317221223e-01
  -3.9204952902e-01  -3.9620488348e-01   2.1820075554e+01  -6.4411025274e-01  -6.4411025274e-01
  -3.8375085095e-01  -3.8789417455e-01   2.1829387675e+01  -6.7353860126e-01  -6.7353860126e-01
  -3.7546420376e-01  -3.7960752735e-01   2.1839642688e+01  -6.9129226775e-01  -6.9129226775e-01
  -3.6717755656e-01  -3.7132088016e-01   2.1850367807e+01  -6.9758755793e-01  -6.9758755793e-01
  -3.5889090936e-01  -3.6303423296e-01   2.1860879660e+01  -6.9302584859e-01  -6.9302584859e-01
  -3.5060426216e-01  -3.5474758576e-01   2.1870130136e+01  -6.7866915287e-01  -6.7866915287e-01
  -3.4231761496e-01  -3.4646093856e-01   2.1876651118e+01  -6.5610372170e-01  -6.5610372170e-01
  -3.3403096776e-01  -3.3817429136e-01   2.1878811112e+01  -6.2535058749e-01  -6.2535058749e-01
  -3.2574432056e-01  -3.2988764416e-01   2.1874328774e+01  -5.8884768632e-01  -5.8884768632e-01
  -3.1804765369e-01  -3.2160099696e-01   2.1862924239e+01  -5.5317415940e-01  -5.5317415940e-01
  -3.1094096715e-01  -3.1449431042e-01   2.1842476054e+01  -5.1490379751e-01  -5.1490379751e-01
  -3.0383428061e-01  -3.0738762388e-01   2.1812113338e+01  -4.7615081365e-01  -4.7615081365e-01
  -2.9672759406e-01  -3.0028093734e-01   2.1772315179e+01  -4.3876276182e-01  -4.3876276182e-01
  -2.8962090752e-01  -2.9317425079e-01   2.1724338404e+01  -4.0382480833e-01  -4.0382480833e-01
  -2.8251422098e-01  -2.8606756425e-01   2.1670096332e+01  -3.7217434675e-01  -3.7217434675e-01
  -2.7540753444e-01  -2.7896087771e-01   2.1606549573e+01  -3.4193935451e-01  -3.4193935451e-01
  -2.6830084790e-01  -2.7185419117e-01   2.1536823288e+01  -3.1423070101e-01  -3.1423070101e-01
  -2.6135037937e-01  -2.6474750462e-01   2.1464307308e+01  -2.8971524257e-01  -2.8971524257e-01
  -2.5455612888e-01  -2.5795325413e-01   2.1391169585e+01  -2.6796631532e-01  -2.6796631532e-01
  -2.4776187838e-01  -2.5115900363e-01   2.1321528704e+01  -2.4899879151e-01  -2.4899879151e-01
  -2.4096762788e-01  -2.4436475313e-01   2.1257137281e+01  -2.3219800704e-01  -2.3219800704e-01
  -2.3417337738e-01  -2.3757050263e-01   2.1199391895e+01  -2.1696369841e-01  -2.1696369841e-01
  -2.2737912688e-01  -2.3077625213e-01   2.1151779408e+01  -2.0342706256e-01  -2.0342706256e-01
  -2.2058487638e-01  -2.2398200163e-01   2.1114693614e+01  -1.9095045814e-01  -1.9095045814e-01
  -2.1379062588e-01  -2.1718775113e-01   2.1089883795e+01  -1.7924466198e-01  -1.7924466198e-01
  -2.0698442831e-01  -2.1039350063e-01   2.1080149042e+01  -1.6813964836e-01  -1.6813964836e-01
  -2.0016628367e-01  -2.0357535599e-01   2.1088657971e+01  -1.5768255809e-01  -1.5768255809e-01
  -1.9334813903e-01  -1.9675721135e-01   2.1115561657e+01  -1.4840112081e-01  -1.4840112081e-01
  -1.8652999439e-01  -1.8993906671e-01   2.1158060855e+01  -1.4047352218e-01  -1.4047352218e-01
  -1.7971184975e-01  -1.8312092207e-01   2.1214102039e+01  -1.3406450130e-01  -1.3406450130e-01
  -1.7289370510e-01  -1.7630277742e-01   2.1283151691e+01  -1.2910243314e-01  -1.2910243314e-01
  -1.6607556046e-01  -1.6948463278e-01   2.1345452864e+01  -1.2623556032e-01  -1.2623556032e-01
  -1.5925741582e-01  -1.6266648814e-01   2.1433034585e+01  -1.2470946145e-01  -1.2470946145e-01
  -1.4991723597e-01  -1.5584834350e-01   2.1533280439e+01  -1.2544907629e-01  -1.2544907629e-01
  -1.3805502093e-01  -1.4398612845e-01   2.1667790077e+01  -1.3083524379e-01  -1.3083524379e-01
  -1.2619280588e-01  -1.3212391340e-01   2.1791694890e+01  -1.4068393121e-01  -1.4068393121e-01
  -1.1433059083e-01  -1.2026169835e-01   2.1937702422e+01  -1.6038303160e-01  -1.6038303160e-01
  -1.0499958783e-01  -1.0839948330e-01   2.2033488811e+01  -1.7980433174e-01  -1.7980433174e-01
  -9.8199796893e-02  -1.0159969236e-01   2.2097110991e+01  -1.9606092597e-01  -1.9606092597e-01
  -9.1400005952e-02  -9.4799901422e-02   2.2157214895e+01  -2.1441154469e-01  -2.1441154469e-01
  -8.4600215011e-02  -8.8000110481e-02   2.2212753614e+01  -2.3342810645e-01  -2.3342810645e-01
  -7.7800424070e-02  -8.1200319540e-02   2.2263755450e+01  -2.5169796705e-01  -2.5169796705e-01
  -7.1000633129e-02  -7.4400528599e-02   2.2311230956e+01  -2.6805666317e-01  -2.6805666317e-01
  -6.4200842188e-02  -6.7600737658e-02   2.2358009156e+01  -2.8196034318e-01  -2.8196034318e-01
  -5.7401051247e-02  -6.0800946717e-02   2.2405995516e+01  -2.9274278889e-01  -2.9274278889e-01
  -5.0821648278e-02  -5.4001155776e-02   2.2454895017e+01  -2.9972061996e-01  -2.9972061996e-01
  -4.4462633283e-02  -4.7642140781e-02   2.2505849654e+01  -3.0314136918e-01  -3.0314136918e-01
  -3.8103618287e-02  -4.1283125785e-02   2.2561064138e+01  -3.0317852063e-01  -3.0317852063e-01
  -3.1744603291e-02  -3.4924110789e-02   2.2620908074e+01  -2.9989299372e-01  -2.9989299372e-01
  -2.5385588295e-02  -2.8565095793e-02   2.2684469810e+01  -2.9355113675e-01  -2.9355113675e-01
  -1.9026573299e-02  -2.2206080797e-02   2.2748014080e+01  -2.8489599661e-01  -2.8489599661e-01
  -1.2667558303e-02  -1.5847065801e-02   2.2814374337e+01  -2.7394398237e-01  -2.7394398237e-01
  -6.3085433072e-03  -9.4880508051e-03   2.2882249753e+01  -2.6113050988e-01  -2.6113050988e-01
   1.3451355863e-04  -3.1290358092e-03   2.2950673734e+01  -2.4687235701e-01  -2.4687235701e-01
   6.6616122944e-03   3.3980629265e-03   2.3019085646e+01  -2.3153718083e-01  -2.3153718083e-01
   1.3188711030e-02   9.9251616622e-03   2.3086764751e+01  -2.1552085604e-01  -2.1552085604e-01
   1.9715809766e-02   1.6452260398e-02   2.3152966628e+01  -1.9917706496e-01  -1.9917706496e-01
   2.6242908502e-02   2.2979359134e-02   2.3215807082e+01  -1.8311401980e-01  -1.8311401980e-01
   3.2770007237e-02   2.9506457869e-02   2.3271322637e+01  -1.6846557729e-01  -1.6846557729e-01
   3.9297105973e-02   3.6033556605e-02   2.3321339561e+01  -1.5477174719e-01  -1.5477174719e-01
   4.5824204709e-02   4.2560655341e-02   2.3363396534e+01  -1.4264009629e-01  -1.4264009629e-01
   5.2733751509e-02   4.9087754077e-02   2.3391829771e+01  -1.3358234587e-01  -1.3358234587e-01
   6.0025746374e-02   5.6379748942e-02   2.3407010574e+01  -1.2715586413e-01  -1.2715586413e-01
   6.7317741240e-02   6.3671743807e-02   2.3405099801e+01  -1.2410795041e-01  -1.2410795041e-01
   7.4609736105e-02   7.0963738672e-02   2.3385108698e+01  -1.2400156407e-01  -1.2400156407e-01
   8.1901730970e-02   7.8255733538e-02   2.3347726641e+01  -1.2555460075e-01  -1.2555460075e-01
   8.9193725836e-02   8.5547728403e-02   2.3295106235e+01  -1.2655234418e-01  -1.2655234418e-01
   9.6485720701e-02   9.2839723268e-02   2.3229246737e+01  -1.2383444456e-01  -1.2383444456e-01
   1.0377771557e-01   1.0013171813e-01   2.3157593065e+01  -1.1328887086e-01  -1.1328887086e-01
   1.1333047811e-01   1.0742371300e-01   2.3067961777e+01  -7.9046368680e-02  -7.9046368680e-02
   1.2514400833e-01   1.1923724322e-01   2.2990390099e+01  -8.7665429075e-03  -8.7665429075e-03
   1.3695753855e-01   1.3105077344e-01   2.2919672081e+01   8.0503427503e-02   8.0503427503e-02
   1.4877106877e-01   1.4286430366e-01   2.2766539408e+01   1.4811251367e-01   1.4811251367e-01
   1.5914239601e-01   1.5467783388e-01   2.2489474597e+01   1.5007172307e-01   1.5007172307e-01
   1.6807152026e-01   1.6360695814e-01   2.2129861035e+01   9.8771003472e-02   9.8771003472e-02
   1.7668299988e-01   1.7253608239e-01   2.1673529419e+01   2.1586379120e-02   2.1586379120e-02
   1.8497683487e-01   1.8082991737e-01   2.1298169599e+01  -2.2155159457e-02  -2.2155159457e-02
   1.9236061041e-01   1.8912375236e-01   2.1077568681e+01  -5.3878201874e-03  -5.3878201874e-03
   1.9883432651e-01   1.9559746846e-01   2.0965079793e+01   4.9093722913e-02   4.9093722913e-02
   2.0530804261e-01   2.0207118456e-01   2.0904608458e+01   1.2425290339e-01   1.2425290339e-01
   2.1178175871e-01   2.0854490066e-01   2.0873808042e+01   2.0096265957e-01   2.0096265957e-01
   2.1825547481e-01   2.1501861676e-01   2.0862015539e+01   2.7620175391e-01   2.7620175391e-01
   2.2472919091e-01   2.2149233286e-01   2.0863675685e+01   3.5097104495e-01   3.5097104495e-01
   2.3120290701e-01   2.2796604896e-01   2.0878597431e+01   4.3965361488e-01   4.3965361488e-01
   2.3767662312e-01   2.3443976506e-01   2.0874355809e+01   5.1896411119e-01   5.1896411119e-01
   2.4473968094e-01   2.4091348117e-01   2.0801649452e+01   5.7308631014e-01   5.7308631014e-01
   2.5239208049e-01   2.4856588071e-01   2.0581269827e+01   5.9341965758e-01   5.9341965758e-01
   2.6004448003e-01   2.5621828026e-01   2.0359019376e+01   5.6341071296e-01   5.6341071296e-01
   2.6769687958e-01   2.6387067981e-01   2.0264746380e+01   4.4250454340e-01   4.4250454340e-01
   2.7600376981e-01   2.7152307935e-01   2.0471379068e+01   2.1604664918e-01   2.1604664918e-01
   2.8496515073e-01   2.8048446027e-01   2.0899143493e+01  -1.2700152165e-01  -1.2700152165e-01
   2.9457836563e-01   2.8944584119e-01   2.1283901914e+01  -5.0085689531e-01  -5.0085689531e-01
   3.0484341451e-01   2.9971089007e-01   2.1315809956e+01  -7.0254348356e-01  -7.0254348356e-01
   3.1510846338e-01   3.0997593895e-01   2.1309948753e+01  -7.1541447716e-01  -7.1541447716e-01
   3.2537351226e-01   3.2024098782e-01   2.1343719619e+01  -5.2618771862e-01  -5.2618771862e-01
   3.3389001763e-01   3.3050603670e-01   2.0960099281e+01  -2.1025086699e-01  -2.1025086699e-01
   3.4065797950e-01   3.3727399857e-01   2.0510736706e+01   8.5672683513e-02   8.5672683513e-02
   3.4923802162e-01   3.4404196043e-01   2.0152551133e+01   3.6081755000e-01   3.6081755000e-01
   3.5963014400e-01   3.5443408281e-01   2.0100840472e+01   5.3039573928e-01   5.3039573928e-01
   3.7002226637e-01   3.6482620518e-01   2.0166095500e+01   5.5058588182e-01   5.5058588182e-01
   3.8041438875e-01   3.7521832756e-01   2.0087137632e+01   4.5775208842e-01   4.5775208842e-01
   3.8969286124e-01   3.8561044994e-01   2.0215304092e+01   2.7713528456e-01   2.7713528456e-01
   3.9785768386e-01   3.9377527255e-01   2.0646035218e+01  -5.0864891914e-02  -5.0864891914e-02
   4.0783009182e-01   4.0194009517e-01   2.1166606594e+01  -4.3755347204e-01  -4.3755347204e-01
   4.1961008513e-01   4.1372008848e-01   2.1474291927e+01  -7.1369926561e-01  -7.1369926561e-01
   4.2940244875e-01   4.2550008178e-01   2.1678166828e+01  -7.9752487459e-01  -7.9752487459e-01
   4.3720718270e-01   4.3330481572e-01   2.1913331772e+01  -8.1056660836e-01  -8.1056660836e-01
   4.4501191664e-01   4.4110954967e-01   2.2089989776e+01  -7.9672776738e-01  -7.9672776738e-01
   4.5281665059e-01   4.4891428362e-01   2.2093703002e+01  -7.3462192386e-01  -7.3462192386e-01
   4.6094798234e-01   4.5671901756e-01   2.1873512226e+01  -6.2000114846e-01  -6.2000114846e-01
   4.6940591189e-01   4.6517694711e-01   2.1478559289e+01  -4.7393945806e-01  -4.7393945806e-01
   4.7838358683e-01   4.7363487666e-01   2.1025506264e+01  -2.6785804188e-01  -2.6785804188e-01
   4.8788100716e-01   4.8313229700e-01   2.0694983568e+01   1.4131894404e-02   1.4131894404e-02
   4.9853684043e-01   4.9262971733e-01   2.0333956408e+01   3.2968241517e-01   3.2968241517e-01
   5.1035108663e-01   5.0444396353e-01   1.9962904134e+01   5.8104521419e-01   5.8104521419e-01
   5.1985567371e-01   5.1625820973e-01   1.9782298781e+01   7.0184554793e-01   7.0184554793e-01
   5.2705060167e-01   5.2345313769e-01   1.9793443662e+01   6.9680948518e-01   6.9680948518e-01
   5.3424552963e-01   5.3064806565e-01   1.9961870662e+01   5.9536194825e-01   5.9536194825e-01
   5.4144045760e-01   5.3784299362e-01   2.0273729837e+01   4.0863382991e-01   4.0863382991e-01
